# label|duration_s|amplitude_bar_mV|plot_min_mV|plot_max_mV|source|block|start_s|stop_s|note|ECG points|6-s moving-median HR points
# all windows: 1 kHz, 30.000 s, 30,001 samples, zero missing values; HR is the acquisition system's ECG-derived channel
Baseline|30.000|10.000|-10.500|11.500|03esmolol  pacing pig.txt|4|1671.000|1701.000|stable pre-esmolol window selected by raw-envelope audit|0.0000000,-1.7317970;0.0003000,-1.4730470;0.0003333,-1.4421090;0.0006333,-1.2628130;0.0007333,-1.2494530;0.0009667,-1.3239840;0.0010000,-1.3331250;0.0013000,-1.4329690;0.0014000,-1.4301560;0.0016000,-1.4470310;0.0016667,-1.4428130;0.0019667,-1.3612500;0.0020000,-1.3317190;0.0023000,-1.0117970;0.0023333,-0.9682031;0.0026333,-0.5667188;0.0026667,-0.5175000;0.0029667,-0.1659375;0.0030000,-0.1342969;0.0033000,0.0260156;0.0034333,0.0590625;0.0036333,0.0210938;0.0036667,0.0182812;0.0039667,-0.1715625;0.0040000,-0.2003906;0.0043000,-0.3142969;0.0043667,-0.3192188;0.0046333,-0.2432813;0.0046667,-0.2144531;0.0049667,0.0070313;0.0050000,0.0625781;0.0053000,0.5083594;0.0053333,0.5273438;0.0055333,0.6285938;0.0056667,0.5533594;0.0058000,0.5182031;0.0060000,0.5392969;0.0063000,0.6750000;0.0063333,0.6911719;0.0066333,0.8557031;0.0068333,0.9492188;0.0069667,0.8261719;0.0070000,0.7214063;0.0072333,-0.3445313;0.0074000,-0.5350781;0.0076333,4.8607030;0.0077667,8.1000000;0.0079667,5.6383590;0.0080000,5.2291410;0.0083000,3.2350780;0.0083333,3.1085160;0.0086333,2.5832810;0.0086667,2.5453130;0.0089667,2.2978130;0.0090000,2.2809380;0.0093000,2.1002340;0.0093333,2.0798440;0.0096333,1.6903130;0.0096667,1.6516410;0.0099667,1.3668750;0.0100000,1.3366410;0.0103000,1.1123440;0.0103667,1.0975780;0.0106333,1.1953130;0.0106667,1.2121880;0.0109000,1.3042970;0.0110667,1.3057030;0.0113000,1.2578910;0.0114000,1.2600000;0.0116333,1.1974220;0.0116667,1.1925000;0.0119667,1.1158590;0.0120667,1.1165630;0.0123000,1.0877340;0.0124333,1.0933590;0.0126333,1.0532810;0.0127667,1.0680470;0.0129667,0.9773438;0.0130000,0.9667969;0.0133000,0.9260156;0.0133333,0.9316406;0.0136333,0.9773438;0.0136667,0.9815625;0.0139667,1.0624220;0.0140000,1.0821090;0.0143000,1.3443750;0.0143333,1.3900780;0.0146333,1.9406250;0.0146667,2.0172660;0.0149667,2.7506250;0.0150000,2.8321880;0.0153000,3.2990630;0.0153333,3.2906250;0.0156333,2.4145310;0.0156667,2.2422660;0.0159667,0.6173438;0.0160000,0.4717969;0.0163000,-0.3635156;0.0163333,-0.4092188;0.0166333,-0.6039844;0.0166667,-0.6110156;0.0169667,-0.6532031;0.0170000,-0.6546094;0.0171667,-0.6384375;0.0173333,-0.6391406;0.0176333,-0.5414063;0.0176667,-0.5224219;0.0179667,-0.3571875;0.0180000,-0.3346875;0.0183000,-0.1061719;0.0183333,-0.0766406;0.0186333,0.2179688;0.0186667,0.2524219;0.0189667,0.5238281;0.0190000,0.5449219;0.0193000,0.6243750;0.0194000,0.6391406;0.0196333,0.5744531;0.0196667,0.5505469;0.0199667,0.4218750;0.0200667,0.4176563;0.0203000,0.3424219;0.0203333,0.3283594;0.0206333,0.2285156;0.0206667,0.2235938;0.0209667,0.3135938;0.0210000,0.3283594;0.0213000,0.5730469;0.0213333,0.6096094;0.0216333,0.9302344;0.0216667,0.9590625;0.0219667,1.1608590;0.0221667,1.2072660;0.0223000,1.1629690;0.0223333,1.1439840;0.0226333,0.9091406;0.0226667,0.8880469;0.0229667,0.8015625;0.0230000,0.8043750;0.0233000,0.9527344;0.0233333,0.9653906;0.0236333,1.4160940;0.0236667,1.4625000;0.0239667,1.6108590;0.0240000,1.6101560;0.0242333,1.5215630;0.0244000,1.5574220;0.0245667,1.5032810;0.0246667,1.5356250;0.0249667,1.6200000;0.0250000,1.6361720;0.0252333,1.7493750;0.0253333,1.7282810;0.0256333,0.2559375;0.0256667,0.2032031;0.0259667,2.2317190;0.0260000,3.1176560;0.0262000,8.7771090;0.0263333,7.3103910;0.0266333,4.1287500;0.0266667,3.9600000;0.0269667,3.1809380;0.0270000,3.1732030;0.0273000,3.0635160;0.0273333,3.0466410;0.0276333,2.7442970;0.0276667,2.6817190;0.0279667,2.0882810;0.0280000,2.0200780;0.0283000,1.7507810;0.0283333,1.7346090;0.0286333,1.4407030;0.0286667,1.4097660;0.0288333,1.3436720;0.0290000,1.3971090;0.0293000,1.5700780;0.0294333,1.5953910;0.0296333,1.5398440;0.0296667,1.5257810;0.0299667,1.3788280;0.0300000,1.3605470;0.0303000,1.1917970;0.0303333,1.1735160;0.0306333,1.0743750;0.0307667,1.0722660;0.0309667,1.0448440;0.0310000,1.0413280;0.0311667,1.0680470;0.0313333,1.0413280;0.0315000,1.0722660;0.0316667,1.0666410;0.0319667,1.1102340;0.0320000,1.1200780;0.0323000,1.2543750;0.0323333,1.2712500;0.0326333,1.5103130;0.0326667,1.5461720;0.0329667,1.9870310;0.0330000,2.0467970;0.0333000,2.7070310;0.0333333,2.7871880;0.0336333,3.3932810;0.0337333,3.4530470;0.0339667,2.9545310;0.0340000,2.8167190;0.0343000,1.1376560;0.0343333,0.9421875;0.0346333,-0.3712500;0.0346667,-0.4668750;0.0349667,-0.9766406;0.0350000,-1.0082810;0.0353000,-1.2114840;0.0353333,-1.2367970;0.0356333,-1.4245310;0.0356667,-1.4477340;0.0359667,-1.5637500;0.0360333,-1.5742970;0.0362333,-1.5637500;0.0363333,-1.5630470;0.0366333,-1.4653130;0.0366667,-1.4484380;0.0369667,-1.2114840;0.0370000,-1.1826560;0.0373000,-0.8669531;0.0373333,-0.8282813;0.0376333,-0.4464844;0.0376667,-0.4127344;0.0379667,-0.1771875;0.0380000,-0.1645313;0.0382000,-0.1167188;0.0383333,-0.1314844;0.0386333,-0.1961719;0.0386667,-0.2172656;0.0389667,-0.5350781;0.0390000,-0.5899219;0.0393000,-0.9745313;0.0393333,-1.0012500;0.0395000,-1.0490630;0.0396667,-1.0279690;0.0399667,-0.7446094;0.0400000,-0.7073438;0.0403000,-0.3557813;0.0403333,-0.3227344;0.0406333,-0.0942188;0.0407000,-0.0907031;0.0409667,-0.3016406;0.0410000,-0.3410156;0.0413000,-0.5392969;0.0413333,-0.5435156;0.0416333,-0.3965625;0.0416667,-0.3705469;0.0419667,-0.0232031;0.0420000,0.0471094;0.0423000,0.3958594;0.0423333,0.4120313;0.0424667,0.4746094;0.0426667,0.4148438;0.0428333,0.5097656;0.0430000,0.4732031;0.0433000,0.6433594;0.0433333,0.6489844;0.0436333,0.8226563;0.0437000,0.8282813;0.0439667,-0.0400781;0.0441000,-0.7593750;0.0443000,-0.1293750;0.0443333,0.1863281;0.0446333,7.8841410;0.0446667,7.8967970;0.0449667,3.9564840;0.0450000,3.7117970;0.0453000,2.4278910;0.0453333,2.3688280;0.0456333,2.1937500;0.0456667,2.1677340;0.0459667,1.8428910;0.0460000,1.7838280;0.0463000,1.2171090;0.0463333,1.1475000;0.0466333,0.6539063;0.0466667,0.6194531;0.0469667,0.2953125;0.0470000,0.2355469;0.0473000,-0.0506250;0.0473333,-0.0534375;0.0476333,0.1153125;0.0476667,0.1223438;0.0478667,0.1624219;0.0480000,0.1469531;0.0483000,0.0717187;0.0483333,0.0569531;0.0486333,-0.0829687;0.0486667,-0.1054688;0.0489667,-0.2074219;0.0490000,-0.2172656;0.0493000,-0.2418750;0.0493333,-0.2453906;0.0496333,-0.2214844;0.0496667,-0.2179688;0.0499667,-0.0942188;0.0500000,-0.0829687;0.0503000,0.0154687;0.0503333,0.0246094;0.0506333,0.1722656;0.0506667,0.1891406;0.0509667,0.3846094;0.0510000,0.4042969;0.0513000,0.7312500;0.0513333,0.7790625;0.0516333,1.3682810;0.0516667,1.4421090;0.0519667,2.1220310;0.0521667,2.3280470;0.0523000,2.1642190;0.0523333,2.0749220;0.0526333,0.6525000;0.0526667,0.4514063;0.0529667,-1.0659380;0.0530000,-1.1882810;0.0533000,-1.8281250;0.0533333,-1.8653910;0.0536333,-2.0559380;0.0536667,-2.0763280;0.0539667,-2.2162500;0.0540000,-2.2366410;0.0543000,-2.3751560;0.0543333,-2.3899220;0.0544000,-2.4011720;0.0546667,-2.3878130;0.0549667,-2.2725000;0.0550000,-2.2556250;0.0553000,-1.9905470;0.0553333,-1.9560940;0.0556333,-1.5946880;0.0556667,-1.5546090;0.0559667,-1.1257030;0.0560000,-1.0828130;0.0563000,-0.7185938;0.0563333,-0.6953906;0.0566333,-0.5231250;0.0566667,-0.5153906;0.0568667,-0.4710938;0.0570000,-0.4999219;0.0573000,-0.7361719;0.0573333,-0.7846875;0.0576333,-1.1882810;0.0576667,-1.2248440;0.0579333,-1.3127340;0.0580000,-1.3064060;0.0583000,-1.1003910;0.0583333,-1.0680470;0.0586333,-0.6426563;0.0586667,-0.5983594;0.0589667,-0.2721094;0.0591000,-0.2292188;0.0593000,-0.3874219;0.0593333,-0.4380469;0.0596333,-0.7291406;0.0597333,-0.7523438;0.0599667,-0.6890625;0.0600000,-0.6757031;0.0603000,-0.4682813;0.0603333,-0.4317188;0.0606333,0.0618750;0.0606667,0.0780469;0.0609000,0.2172656;0.0611000,0.1378125;0.0612667,0.2025000;0.0614333,0.1441406;0.0616333,0.2517188;0.0616667,0.2622656;0.0619667,0.3656250;0.0621667,0.4303125;0.0623000,0.2348438;0.0623333,0.0787500;0.0625667,-1.2030470;0.0626667,-1.0061720;0.0629667,4.8410160;0.0631000,7.4475000;0.0633000,4.7003910;0.0633333,4.2834380;0.0636333,2.4039840;0.0636667,2.2921880;0.0639667,1.9814060;0.0640000,1.9680470;0.0643000,1.7662500;0.0643333,1.7198440;0.0646333,1.2410160;0.0646667,1.1791410;0.0649667,0.5203125;0.0650000,0.4443750;0.0653000,0.1328906;0.0653333,0.0921094;0.0656333,-0.2749219;0.0657667,-0.3473438;0.0659667,-0.2615625;0.0660000,-0.2383594;0.0663000,-0.0815625;0.0663333,-0.0759375;0.0665333,-0.0302344;0.0666667,-0.0414844;0.0669667,-0.1638281;0.0670000,-0.1849219;0.0673000,-0.3550781;0.0673333,-0.3691406;0.0676333,-0.4127344;0.0677000,-0.4176563;0.0679667,-0.3881250;0.0680000,-0.3846094;0.0683000,-0.3009375;0.0683333,-0.2939063;0.0686333,-0.1694531;0.0686667,-0.1575000;0.0689667,-0.0246094;0.0690000,-0.0126563;0.0693000,0.1539844;0.0693333,0.1764844;0.0696333,0.4802344;0.0696667,0.5210156;0.0699667,1.0842190;0.0700000,1.1622660;0.0703000,1.9539840;0.0703333,2.0341410;0.0706000,2.4475780;0.0706667,2.4117190;0.0709667,1.4301560;0.0710000,1.2487500;0.0713000,-0.4232813;0.0713333,-0.5793750;0.0716333,-1.4639060;0.0716667,-1.5215630;0.0719667,-1.8330470;0.0720000,-1.8562500;0.0723000,-2.0151560;0.0723333,-2.0362500;0.0726333,-2.1199220;0.0727333,-2.1375000;0.0729667,-2.1135940;0.0730000,-2.1128910;0.0733000,-2.0334380;0.0733333,-2.0221880;0.0736333,-1.8112500;0.0736667,-1.7831250;0.0739667,-1.4428130;0.0740000,-1.4055470;0.0743000,-1.0371090;0.0743333,-1.0012500;0.0746333,-0.6180469;0.0746667,-0.5828906;0.0749667,-0.3297656;0.0750000,-0.3199219;0.0753000,-0.2242969;0.0754000,-0.2221875;0.0756333,-0.2840625;0.0756667,-0.3135938;0.0759667,-0.6103125;0.0760000,-0.6475781;0.0763000,-0.7994531;0.0763667,-0.8064844;0.0766333,-0.6567188;0.0766667,-0.6292969;0.0769667,-0.2629688;0.0770000,-0.2200781;0.0773000,0.1610156;0.0773333,0.1835156;0.0775000,0.2601563;0.0776667,0.1525781;0.0779667,-0.1610156;0.0780667,-0.1933594;0.0783000,-0.1371094;0.0783333,-0.1244531;0.0786333,0.0675000;0.0786667,0.0822656;0.0789667,0.5421094;0.0790000,0.5617969;0.0792667,0.6918750;0.0793333,0.6637500;0.0794667,0.6018750;0.0798000,0.6243750;0.0799667,0.7129688;0.0800000,0.7403906;0.0803000,0.8641406;0.0803333,0.8824219;0.0805333,0.9801563;0.0806667,0.8472656;0.0809667,-0.6658594;0.0810000,-0.6222656;0.0813000,3.3060940;0.0813333,4.5675000;0.0815000,8.0367190;0.0816667,5.6010940;0.0819667,3.1331250;0.0820000,2.9917970;0.0823000,2.4883590;0.0823333,2.4721880;0.0826333,2.2471880;0.0826667,2.2028910;0.0829667,1.7915630;0.0830000,1.7332030;0.0833000,1.1242970;0.0833333,1.0392190;0.0836333,0.5772656;0.0836667,0.5449219;0.0839667,0.1610156;0.0840000,0.1202344;0.0841667,0.0239063;0.0843333,0.0696094;0.0846333,0.2460938;0.0846667,0.2524219;0.0848667,0.2791406;0.0850000,0.2629688;0.0853000,0.1469531;0.0853333,0.1181250;0.0856333,-0.0907031;0.0856667,-0.1132031;0.0859667,-0.2517188;0.0860000,-0.2692969;0.0863000,-0.3860156;0.0863667,-0.4000781;0.0866333,-0.3649219;0.0866667,-0.3585938;0.0869667,-0.2460938;0.0870000,-0.2327344;0.0873000,-0.0625781;0.0873333,-0.0442969;0.0876333,0.1321875;0.0876667,0.1532813;0.0879667,0.4359375;0.0880000,0.4753125;0.0883000,0.9857813;0.0883333,1.0567970;0.0886333,1.8576560;0.0886667,1.9462500;0.0889667,2.5235160;0.0890000,2.5277340;0.0893000,1.8182810;0.0893333,1.6565630;0.0896333,0.0639844;0.0896667,-0.0984375;0.0899667,-1.0708590;0.0900000,-1.1341410;0.0903000,-1.4842970;0.0903333,-1.5110160;0.0906333,-1.6741410;0.0906667,-1.6931250;0.0909667,-1.8351560;0.0910000,-1.8527340;0.0913000,-1.9511720;0.0913333,-1.9610160;0.0914333,-1.9814060;0.0916667,-1.9687500;0.0919667,-1.8428910;0.0920000,-1.8232030;0.0923000,-1.5412500;0.0923333,-1.5089060;0.0926333,-1.1559380;0.0926667,-1.1186720;0.0929667,-0.7164844;0.0930000,-0.6792188;0.0933000,-0.3382031;0.0933333,-0.3107813;0.0936333,-0.1399219;0.0936667,-0.1335938;0.0938333,-0.1040625;0.0940000,-0.1497656;0.0943000,-0.3937500;0.0943333,-0.4303125;0.0946333,-0.5969531;0.0947000,-0.6046875;0.0949667,-0.4802344;0.0950000,-0.4605469;0.0953000,-0.1153125;0.0953333,-0.0738281;0.0956333,0.3410156;0.0956667,0.3747656;0.0959000,0.5385938;0.0960000,0.4985156;0.0963000,0.1715625;0.0963333,0.1462500;0.0964667,0.1033594;0.0966667,0.1546875;0.0969667,0.3501563;0.0970000,0.3670313;0.0973000,0.7650000;0.0973333,0.8296875;0.0976333,1.0532810;0.0977000,1.0708590;0.0979000,1.0371090;0.0980000,1.0673440;0.0981333,1.1299220;0.0983333,1.1376560;0.0986333,1.2621090;0.0986667,1.2691410;0.0989333,1.4041410;0.0990000,1.3957030;0.0993000,0.0386719;0.0994000,-0.2819531;0.0996333,0.9478125;0.0996667,1.5215630;0.0999333,8.5436720;0.1000000,7.8363280;0.1003000,4.1076560;0.1003333,3.9128910;0.1006333,3.0227340;0.1006667,3.0002340;0.1009667,2.8603130;0.1010000,2.8335940;0.1013000,2.4623440;0.1013333,2.4082030;0.1016333,1.9125000;0.1016667,1.8435940;0.1019667,1.2353910;0.1020000,1.1903910;0.1023000,0.7678125;0.1023333,0.7129688;0.1026000,0.4746094;0.1026667,0.4795313;0.1029667,0.6046875;0.1030000,0.6067969;0.1032000,0.6335156;0.1033333,0.6096094;0.1036333,0.4950000;0.1036667,0.4746094;0.1039667,0.3037500;0.1040000,0.2791406;0.1043000,0.0998437;0.1043333,0.0780469;0.1046333,-0.0710156;0.1046667,-0.0885937;0.1049667,-0.1708594;0.1050333,-0.1792969;0.1053000,-0.1427344;0.1053333,-0.1385156;0.1056333,-0.0435938;0.1056667,-0.0302344;0.1059667,0.1350000;0.1060000,0.1525781;0.1063000,0.3768750;0.1063333,0.4050000;0.1066333,0.8001563;0.1066667,0.8585156;0.1069667,1.5166410;0.1070000,1.6017190;0.1073000,2.3224220;0.1074667,2.4602340;0.1076333,2.1944530;0.1076667,2.0833590;0.1079667,0.6011719;0.1080000,0.4148438;0.1083000,-0.8465625;0.1083333,-0.9344531;0.1086333,-1.3584380;0.1086667,-1.3893750;0.1089667,-1.5946880;0.1090000,-1.6178910;0.1093000,-1.7824220;0.1093333,-1.8042190;0.1096333,-1.9434380;0.1096667,-1.9589060;0.1099667,-2.0313280;0.1100667,-2.0482030;0.1103000,-2.0032030;0.1103333,-1.9877340;0.1106333,-1.7810160;0.1106667,-1.7669530;0.1109667,-1.5300000;0.1110000,-1.5011720;0.1113000,-1.1285160;0.1113333,-1.0947660;0.1116333,-0.7657031;0.1116667,-0.7396875;0.1119667,-0.5315625;0.1120000,-0.5231250;0.1122333,-0.4710938;0.1123333,-0.5013281;0.1126333,-0.6799219;0.1126667,-0.7080469;0.1128667,-0.7797656;0.1130000,-0.7797656;0.1133000,-0.5864063;0.1133333,-0.5540625;0.1136333,-0.2123438;0.1136667,-0.1919531;0.1139000,-0.0970312;0.1140000,-0.1209375;0.1143000,-0.3114844;0.1143333,-0.3438281;0.1146333,-0.5617969;0.1146667,-0.5772656;0.1149667,-0.6525000;0.1150333,-0.6595313;0.1153000,-0.5196094;0.1153333,-0.5048438;0.1156333,-0.1364063;0.1156667,-0.0731250;0.1159667,0.1560938;0.1160333,0.1764844;0.1163000,0.0724219;0.1163333,0.0667969;0.1165000,0.0984375;0.1166667,0.0900000;0.1169667,0.2109375;0.1170000,0.2130469;0.1173000,0.3649219;0.1173333,0.3684375;0.1176333,-0.6243750;0.1176667,-0.8557031;0.1179000,-1.1228910;0.1180000,-0.6075000;0.1183000,7.2836720;0.1183333,7.1303910;0.1186333,3.2547660;0.1186667,3.0065630;0.1189667,1.6579690;0.1190000,1.5897660;0.1193000,1.2255470;0.1193333,1.1988280;0.1196333,1.1418750;0.1196667,1.1369530;0.1199667,1.0828130;0.1200000,1.0532810;0.1203000,0.7474219;0.1203333,0.7115625;0.1206333,0.4485938;0.1206667,0.4141406;0.1209000,0.3220313;0.1210000,0.3283594;0.1213000,0.5266406;0.1213333,0.5449219;0.1215333,0.5990625;0.1216667,0.5681250;0.1219667,0.5062500;0.1220000,0.4999219;0.1223000,0.3951563;0.1223333,0.3684375;0.1226333,0.0724219;0.1226667,0.0274219;0.1229667,-0.3086719;0.1230000,-0.3339844;0.1231333,-0.3817969;0.1233667,-0.3614063;0.1236333,-0.3178125;0.1236667,-0.3171094;0.1239667,-0.2383594;0.1240000,-0.2292188;0.1243000,-0.0921094;0.1243333,-0.0787500;0.1246333,0.0963281;0.1246667,0.1167188;0.1249667,0.4169531;0.1250000,0.4570313;0.1253000,1.0230470;0.1253333,1.0968750;0.1256333,1.7725780;0.1258333,1.9729690;0.1259667,1.8154690;0.1260000,1.7261720;0.1263000,0.3452344;0.1263333,0.1652344;0.1266333,-1.0814060;0.1266667,-1.1721090;0.1269667,-1.5960940;0.1270000,-1.6221090;0.1273000,-1.7866410;0.1273333,-1.8049220;0.1276333,-1.9638280;0.1276667,-1.9835160;0.1279667,-2.1255470;0.1280000,-2.1417190;0.1283000,-2.2528130;0.1283333,-2.2640630;0.1286333,-2.2971090;0.1287000,-2.3034380;0.1289667,-2.1881250;0.1290000,-2.1712500;0.1293000,-1.9617190;0.1293333,-1.9371090;0.1296333,-1.7050780;0.1296667,-1.6903130;0.1299667,-1.5553130;0.1300000,-1.5468750;0.1302667,-1.4793750;0.1303333,-1.4800780;0.1306333,-1.5412500;0.1306667,-1.5630470;0.1308000,-1.6200000;0.1310000,-1.5855470;0.1313000,-1.4076560;0.1313333,-1.3872660;0.1316333,-1.1735160;0.1316667,-1.1545310;0.1319000,-1.0652340;0.1320000,-1.0757810;0.1323000,-1.1777340;0.1323333,-1.1967190;0.1326333,-1.4020310;0.1326667,-1.4350780;0.1329667,-1.8119530;0.1330000,-1.8597660;0.1333000,-2.0749220;0.1333333,-2.0988280;0.1334333,-2.1459380;0.1336667,-2.0896880;0.1339667,-1.9040630;0.1340000,-1.8562500;0.1343000,-1.5482810;0.1345000,-1.5208590;0.1346333,-1.6340630;0.1346667,-1.6748440;0.1349667,-1.7894530;0.1351000,-1.8534380;0.1353000,-1.7803130;0.1354000,-1.7901560;0.1356333,-1.6607810;0.1358333,-1.5939840;0.1359667,-1.7725780;0.1360000,-1.9223440;0.1363000,-2.9896880;0.1364000,-3.3089060;0.1366333,3.0628130;0.1367667,5.5075780;0.1369667,2.6507810;0.1370000,2.2668750;0.1373000,0.2868750;0.1373333,0.1673438;0.1376333,-0.2805469;0.1376667,-0.3150000;0.1378333,-0.4134375;0.1380000,-0.4021875;0.1383000,-0.2868750;0.1383667,-0.2692969;0.1386333,-0.3810938;0.1386667,-0.4014844;0.1389667,-0.4795313;0.1391333,-0.5196094;0.1393000,-0.4612500;0.1393333,-0.4478906;0.1396333,-0.2538281;0.1396667,-0.2341406;0.1399667,-0.0632812;0.1400000,-0.0541406;0.1403000,0.0372656;0.1403333,0.0527344;0.1406000,0.1251563;0.1406667,0.1209375;0.1409667,0.0541406;0.1410000,0.0414844;0.1413000,-0.1012500;0.1413333,-0.1244531;0.1416333,-0.3677344;0.1416667,-0.4057031;0.1418000,-0.4872656;0.1420000,-0.4169531;0.1423000,-0.3065625;0.1423333,-0.2932031;0.1426333,-0.1490625;0.1426667,-0.1328906;0.1429667,0.0393750;0.1430000,0.0639844;0.1433000,0.3417188;0.1433333,0.3810938;0.1436333,0.8978906;0.1436667,0.9703125;0.1439667,1.7191410;0.1440000,1.8021090;0.1443000,2.2739060;0.1443333,2.2577340;0.1446333,1.2789840;0.1446667,1.0996880;0.1449667,-0.4436719;0.1450000,-0.5758594;0.1453000,-1.2494530;0.1453333,-1.2825000;0.1456333,-1.4301560;0.1456667,-1.4392970;0.1459667,-1.4842970;0.1460000,-1.4934380;0.1463000,-1.5236720;0.1464000,-1.5307030;0.1466333,-1.4716410;0.1466667,-1.4807810;0.1468000,-1.5285940;0.1470000,-1.4779690;0.1473000,-1.2747660;0.1473333,-1.2459380;0.1476333,-0.9576563;0.1476667,-0.9372656;0.1479000,-0.8402344;0.1480000,-0.8528906;0.1483000,-0.9597656;0.1483333,-0.9829688;0.1486333,-1.1700000;0.1486667,-1.1925000;0.1489667,-1.4343750;0.1490000,-1.4660160;0.1492667,-1.5714840;0.1493333,-1.5686720;0.1496333,-1.4153910;0.1496667,-1.3921880;0.1499667,-1.1475000;0.1500000,-1.1221880;0.1503000,-0.9351563;0.1503667,-0.9281250;0.1506333,-0.9555469;0.1506667,-0.9696094;0.1509667,-1.0940630;0.1510000,-1.1123440;0.1513000,-1.3795310;0.1513333,-1.4196090;0.1516333,-1.6073440;0.1518000,-1.6628910;0.1519667,-1.6087500;0.1520000,-1.5982030;0.1523000,-1.4421090;0.1523333,-1.3928910;0.1526000,-1.1496090;0.1526667,-1.1566410;0.1529667,-1.2881250;0.1530000,-1.3246880;0.1533000,-1.4224220;0.1534333,-1.4653130;0.1536333,-1.3992190;0.1537333,-1.4146880;0.1539667,-1.2839060;0.1542000,-1.2241410;0.1543000,-1.3514060;0.1543333,-1.4695310;0.1546333,-2.4532030;0.1547333,-2.9552340;0.1549667,2.9868750;0.1551000,6.0257810;0.1553000,3.1605470;0.1553333,2.7471090;0.1556333,0.6813281;0.1556667,0.5575781;0.1559667,0.0583594;0.1560000,0.0189844;0.1561667,-0.0857813;0.1563333,-0.0393750;0.1566333,0.1406250;0.1567000,0.1504688;0.1569667,0.0921094;0.1570000,0.0780469;0.1573000,-0.0105469;0.1573333,-0.0246094;0.1575000,-0.0829687;0.1576667,-0.0660938;0.1579667,0.1603125;0.1580000,0.1919531;0.1583000,0.3789844;0.1583333,0.3867188;0.1586333,0.4647656;0.1586667,0.4739063;0.1589667,0.6039844;0.1590000,0.6046875;0.1593000,0.4942969;0.1593333,0.4710938;0.1596333,0.3346875;0.1596667,0.3199219;0.1599667,0.1399219;0.1600000,0.1125000;0.1603000,-0.2594531;0.1604667,-0.3107813;0.1606333,-0.2657813;0.1606667,-0.2559375;0.1609667,-0.1153125;0.1610000,-0.1047656;0.1613000,0.0217969;0.1613333,0.0414844;0.1616333,0.3150000;0.1616667,0.3550781;0.1619667,0.8514844;0.1620000,0.9232031;0.1623000,1.6825780;0.1623333,1.7669530;0.1626333,2.2471880;0.1626667,2.2387500;0.1629667,1.3429690;0.1630000,1.1671880;0.1633000,-0.4633594;0.1633333,-0.6082031;0.1636333,-1.4111720;0.1636667,-1.4575780;0.1639667,-1.7310940;0.1640000,-1.7521880;0.1643000,-1.8829690;0.1643333,-1.8942190;0.1646333,-1.9518750;0.1646667,-1.9687500;0.1649667,-2.0714060;0.1650667,-2.0735160;0.1653000,-1.9821090;0.1653333,-1.9666410;0.1656333,-1.7564060;0.1656667,-1.7296880;0.1659667,-1.4885160;0.1660000,-1.4639060;0.1663000,-1.2642190;0.1663667,-1.2536720;0.1666333,-1.2881250;0.1666667,-1.2979690;0.1669667,-1.3514060;0.1670000,-1.3640630;0.1673000,-1.4667190;0.1673333,-1.4681250;0.1676333,-1.3260940;0.1676667,-1.2986720;0.1679667,-0.9379688;0.1680000,-0.8915625;0.1683000,-0.4176563;0.1683333,-0.3705469;0.1686333,-0.0590625;0.1686667,-0.0393750;0.1689000,0.0267187;0.1690000,0.0091406;0.1693000,-0.0801562;0.1693333,-0.0956250;0.1696333,-0.3192188;0.1696667,-0.3494531;0.1699667,-0.4401563;0.1700667,-0.4689844;0.1703000,-0.3508594;0.1703333,-0.3213281;0.1706333,-0.0203906;0.1706667,0.0372656;0.1709667,0.4654688;0.1710000,0.4809375;0.1712000,0.5526563;0.1714333,0.4408594;0.1716333,0.5196094;0.1717333,0.5104688;0.1719667,0.6461719;0.1720000,0.6539063;0.1723000,0.8205469;0.1723333,0.8493750;0.1725333,0.9625781;0.1726667,0.7509375;0.1728667,-0.1870313;0.1730667,-0.3909375;0.1733000,5.5891410;0.1734333,8.2947660;0.1736333,5.6503130;0.1736667,5.2671090;0.1739667,3.4052340;0.1740000,3.2892190;0.1743000,2.7878910;0.1743333,2.7435940;0.1746333,2.4806250;0.1746667,2.4574220;0.1749667,2.3083590;0.1750000,2.2858590;0.1753000,1.8780470;0.1753333,1.8351560;0.1756333,1.5475780;0.1756667,1.5075000;0.1759667,1.2290630;0.1760667,1.1981250;0.1763000,1.3064060;0.1763333,1.3232810;0.1766333,1.4385940;0.1766667,1.4407030;0.1769667,1.4111720;0.1770000,1.4076560;0.1771333,1.3781250;0.1773333,1.3746090;0.1775000,1.3303130;0.1776667,1.3429690;0.1778333,1.3127340;0.1780000,1.3246880;0.1781667,1.3014840;0.1784667,1.3120310;0.1786333,1.3570310;0.1786667,1.3612500;0.1789667,1.3999220;0.1790667,1.4224220;0.1793000,1.3668750;0.1794333,1.3464840;0.1796333,1.4315630;0.1796667,1.4554690;0.1799667,1.6882030;0.1800000,1.7205470;0.1803000,2.2155470;0.1803333,2.2942970;0.1806333,3.0466410;0.1806667,3.1275000;0.1809667,3.5915630;0.1810000,3.5817190;0.1813000,2.6936720;0.1813333,2.5228130;0.1816333,0.9175781;0.1816667,0.7741406;0.1819667,-0.0372656;0.1820000,-0.0829687;0.1823000,-0.3107813;0.1823333,-0.3220313;0.1826333,-0.4000781;0.1826667,-0.4050000;0.1828333,-0.4408594;0.1831333,-0.4457813;0.1833000,-0.4078125;0.1833333,-0.4021875;0.1836333,-0.3670313;0.1836667,-0.3607031;0.1839667,-0.2017969;0.1840000,-0.1743750;0.1843000,0.1181250;0.1843333,0.1532813;0.1846333,0.4099219;0.1846667,0.4253906;0.1849667,0.5111719;0.1850000,0.5090625;0.1853000,0.4183594;0.1853333,0.4014844;0.1856333,0.3445313;0.1856667,0.3424219;0.1859667,0.3107813;0.1861333,0.2840625;0.1863000,0.3199219;0.1863333,0.3255469;0.1866333,0.5139844;0.1866667,0.5392969;0.1869667,0.8282813;0.1870000,0.8662500;0.1873000,1.1707030;0.1873333,1.1974220;0.1876333,1.3549220;0.1877000,1.3619530;0.1879667,1.2768750;0.1880000,1.2466410;0.1883000,1.0230470;0.1884667,0.9689063;0.1886333,1.0350000;0.1886667,1.0525780;0.1889667,1.2382030;0.1890000,1.2691410;0.1893000,1.7451560;0.1893333,1.7627340;0.1895667,1.8787500;0.1896667,1.8337500;0.1898000,1.7669530;0.1901333,1.7578130;0.1903000,1.8597660;0.1903333,1.8787500;0.1906333,1.9448440;0.1908333,1.9933590;0.1909667,1.9012500;0.1910000,1.8028130;0.1912333,0.5041406;0.1913333,0.6440625;0.1916333,5.3880470;0.1916667,6.6262500;0.1918000,9.0154690;0.1920000,6.2613280;0.1923000,4.1688280;0.1923333,4.0394530;0.1926333,3.5690630;0.1926667,3.5557030;0.1929667,3.3904690;0.1930000,3.3623440;0.1933000,2.9271090;0.1933333,2.8673440;0.1936333,2.2907810;0.1936667,2.2415630;0.1939667,1.9842190;0.1940000,1.9560940;0.1943000,1.6924220;0.1944667,1.6333590;0.1946333,1.7240630;0.1946667,1.7486720;0.1949667,1.8625780;0.1950333,1.8696090;0.1953000,1.8056250;0.1953333,1.7887500;0.1956333,1.6101560;0.1956667,1.5897660;0.1959667,1.4385940;0.1960000,1.4322660;0.1962000,1.3844530;0.1963333,1.3872660;0.1965333,1.3514060;0.1967000,1.3640630;0.1969667,1.2902340;0.1970000,1.2789840;0.1973000,1.1643750;0.1973333,1.1566410;0.1975000,1.1130470;0.1978000,1.1179690;0.1979667,1.1615630;0.1980000,1.1721090;0.1983000,1.3514060;0.1983333,1.3851560;0.1986333,1.7859380;0.1986667,1.8520310;0.1989667,2.4975000;0.1990000,2.5706250;0.1993000,2.9432810;0.1993333,2.9320310;0.1996333,2.0046090;0.1996667,1.8253130;0.1999667,0.0351562;0.2000000,-0.1328906;0.2003000,-1.1967190;0.2003333,-1.2656250;0.2006333,-1.6952340;0.2006667,-1.7219530;0.2009667,-1.9575000;0.2010000,-1.9764840;0.2013000,-2.1424220;0.2013333,-2.1522660;0.2015667,-2.2190630;0.2018000,-2.2310160;0.2019667,-2.1810940;0.2020000,-2.1684380;0.2023000,-1.9926560;0.2023333,-1.9659380;0.2026333,-1.7071880;0.2026667,-1.6748440;0.2029667,-1.3260940;0.2030000,-1.2775780;0.2033000,-0.8936719;0.2033333,-0.8528906;0.2036333,-0.6124219;0.2036667,-0.5983594;0.2039667,-0.5540625;0.2040000,-0.5526563;0.2043000,-0.6243750;0.2043333,-0.6433594;0.2046333,-0.9653906;0.2046667,-1.0061720;0.2049667,-1.2452340;0.2050667,-1.2585940;0.2053000,-1.1383590;0.2053333,-1.1081250;0.2056333,-0.7614844;0.2056667,-0.7192969;0.2059667,-0.3754688;0.2060000,-0.3396094;0.2062667,-0.2081250;0.2063333,-0.2214844;0.2066333,-0.4957031;0.2066667,-0.5167969;0.2068333,-0.5941406;0.2070000,-0.5547656;0.2073000,-0.4000781;0.2073333,-0.3832031;0.2076333,0.0316406;0.2076667,0.0892969;0.2079667,0.2749219;0.2080333,0.2910938;0.2082000,0.2228906;0.2085333,0.2707031;0.2086333,0.3072656;0.2086667,0.3318750;0.2089667,0.4971094;0.2090000,0.5160938;0.2093000,0.6539063;0.2093333,0.6454688;0.2096333,-0.7818750;0.2097000,-0.8964844;0.2099667,0.8929688;0.2100000,1.6579690;0.2102333,7.8053910;0.2103333,6.7260940;0.2106333,3.3433590;0.2106667,3.1661720;0.2109667,2.2978130;0.2110000,2.2851560;0.2113000,2.1403130;0.2113333,2.1206250;0.2116333,1.7402340;0.2116667,1.6846880;0.2119667,1.1355470;0.2120000,1.0722660;0.2123000,0.6869531;0.2123333,0.6700781;0.2126333,0.2910938;0.2126667,0.2538281;0.2128667,0.1005469;0.2130000,0.1448438;0.2133000,0.3382031;0.2133333,0.3543750;0.2136333,0.3958594;0.2136667,0.3944531;0.2139667,0.2995313;0.2140000,0.2854688;0.2143000,0.0506250;0.2143333,0.0210938;0.2146333,-0.1708594;0.2146667,-0.1764844;0.2148667,-0.2067188;0.2151667,-0.2214844;0.2153000,-0.1750781;0.2153333,-0.1582031;0.2156333,-0.0393750;0.2156667,-0.0253125;0.2159667,0.1019531;0.2160000,0.1216406;0.2163000,0.3079688;0.2163333,0.3325781;0.2166333,0.5772656;0.2166667,0.6159375;0.2169667,1.0244530;0.2170000,1.0828130;0.2173000,1.7121090;0.2173333,1.7929690;0.2176333,2.3969530;0.2177333,2.4750000;0.2179667,2.0700000;0.2180000,1.9455470;0.2183000,0.3473438;0.2183333,0.1638281;0.2186333,-1.1172660;0.2186667,-1.2037500;0.2189667,-1.6910160;0.2190000,-1.7170310;0.2193000,-1.9307810;0.2193333,-1.9483590;0.2196333,-2.1051560;0.2196667,-2.1178130;0.2199667,-2.2366410;0.2200000,-2.2408590;0.2202000,-2.2816410;0.2203333,-2.2598440;0.2206333,-2.1522660;0.2206667,-2.1290630;0.2209667,-1.8914060;0.2210000,-1.8576560;0.2213000,-1.5278910;0.2213333,-1.4857030;0.2216333,-1.0828130;0.2216667,-1.0357030;0.2219667,-0.7094531;0.2220000,-0.6792188;0.2223000,-0.5491406;0.2224333,-0.5175000;0.2226333,-0.5442188;0.2226667,-0.5547656;0.2229667,-0.8233594;0.2230000,-0.8648438;0.2233000,-1.2100780;0.2234667,-1.2487500;0.2236333,-1.1826560;0.2236667,-1.1587500;0.2239667,-0.8395313;0.2240000,-0.7903125;0.2243000,-0.3564844;0.2243333,-0.3100781;0.2246333,-0.0878906;0.2246667,-0.0907031;0.2249667,-0.4050000;0.2250000,-0.4401563;0.2252333,-0.5962500;0.2253333,-0.5850000;0.2256333,-0.4436719;0.2256667,-0.4218750;0.2259667,-0.0977344;0.2260000,-0.0274219;0.2263000,0.2313281;0.2264000,0.2671875;0.2265667,0.1961719;0.2266667,0.2264063;0.2269667,0.3044531;0.2270000,0.3206250;0.2273000,0.4858594;0.2273333,0.4964063;0.2276333,0.6609375;0.2276667,0.6672656;0.2279667,-0.4725000;0.2280667,-0.9147656;0.2283000,0.0295312;0.2283333,0.4921875;0.2286000,7.6640630;0.2286667,7.3743750;0.2289667,3.5416410;0.2290000,3.3314060;0.2293000,2.2619530;0.2293333,2.2324220;0.2296333,2.0995310;0.2296667,2.0763280;0.2299667,1.6938280;0.2300000,1.6382810;0.2303000,1.0877340;0.2303333,1.0188280;0.2306333,0.4366406;0.2306667,0.4057031;0.2309667,0.0829687;0.2310000,0.0379688;0.2313000,-0.2228906;0.2313333,-0.2214844;0.2316333,-0.0590625;0.2316667,-0.0393750;0.2319667,0.0112500;0.2320000,0.0126563;0.2323000,-0.0421875;0.2323333,-0.0590625;0.2326333,-0.2946094;0.2326667,-0.3150000;0.2329667,-0.4282031;0.2330000,-0.4345313;0.2332333,-0.4858594;0.2334667,-0.4971094;0.2336333,-0.4612500;0.2336667,-0.4528125;0.2339667,-0.3740625;0.2340000,-0.3607031;0.2343000,-0.2671875;0.2343333,-0.2517188;0.2346333,-0.0963281;0.2346667,-0.0759375;0.2349667,0.1427344;0.2350000,0.1764844;0.2353000,0.5491406;0.2353333,0.6089063;0.2356333,1.2663280;0.2356667,1.3514060;0.2359667,1.9961720;0.2361000,2.1234380;0.2363000,1.8724220;0.2363333,1.7704690;0.2366333,0.2707031;0.2366667,0.0836719;0.2369667,-1.2958590;0.2370000,-1.3914840;0.2373000,-1.8949220;0.2373333,-1.9237500;0.2376333,-2.1009380;0.2376667,-2.1135940;0.2379667,-2.2296090;0.2380000,-2.2359380;0.2383000,-2.3203130;0.2385333,-2.3357810;0.2386333,-2.3076560;0.2386667,-2.2978130;0.2389667,-2.1740630;0.2390000,-2.1522660;0.2393000,-1.9125000;0.2393333,-1.8745310;0.2396333,-1.5264840;0.2396667,-1.4821880;0.2399667,-1.0807030;0.2400000,-1.0335940;0.2403000,-0.6890625;0.2403333,-0.6588281;0.2406333,-0.4485938;0.2406667,-0.4310156;0.2409667,-0.3494531;0.2410000,-0.3501563;0.2413000,-0.5280469;0.2413333,-0.5610938;0.2416333,-0.8648438;0.2416667,-0.8831250;0.2418333,-0.9295313;0.2420000,-0.8753906;0.2423000,-0.6384375;0.2423333,-0.5941406;0.2426333,-0.1413281;0.2426667,-0.0921094;0.2429667,0.1785938;0.2430333,0.1968750;0.2433000,-0.0379688;0.2433333,-0.0829687;0.2436333,-0.2798438;0.2436667,-0.2812500;0.2439667,-0.2003906;0.2440000,-0.1757813;0.2443000,0.0590625;0.2443333,0.1132031;0.2446333,0.5414063;0.2448333,0.6180469;0.2449667,0.5554688;0.2450667,0.5280469;0.2452667,0.5709375;0.2454000,0.5378906;0.2456333,0.6447656;0.2457000,0.6454688;0.2459667,0.7319531;0.2461000,0.7804688;0.2463000,0.4422656;0.2463333,0.2411719;0.2465333,-0.8739844;0.2466667,-0.5428125;0.2469667,6.3119530;0.2470667,7.8862500;0.2473000,4.7109380;0.2473333,4.3614840;0.2476333,2.7625780;0.2476667,2.6725780;0.2479667,2.4039840;0.2480000,2.3835940;0.2483000,2.0840630;0.2483333,2.0397660;0.2486333,1.5623440;0.2486667,1.5124220;0.2489667,0.8964844;0.2490000,0.8268750;0.2493000,0.4296094;0.2493333,0.3874219;0.2496333,-0.0745312;0.2496667,-0.1075781;0.2498333,-0.1750781;0.2500000,-0.1005469;0.2503000,-0.0281250;0.2504333,-0.0154687;0.2505667,-0.0386719;0.2506667,-0.0323437;0.2509667,-0.1061719;0.2510000,-0.1188281;0.2513000,-0.2622656;0.2513333,-0.2700000;0.2516333,-0.3459375;0.2516667,-0.3487500;0.2519000,-0.3986719;0.2520000,-0.3817969;0.2523000,-0.3044531;0.2523333,-0.2889844;0.2526333,-0.1617188;0.2526667,-0.1413281;0.2529667,0.0281250;0.2530000,0.0527344;0.2533000,0.2496094;0.2533333,0.2805469;0.2536333,0.5842969;0.2536667,0.6307031;0.2539667,1.1538280;0.2540000,1.2325780;0.2543000,1.9933590;0.2543333,2.0742190;0.2546000,2.4138280;0.2546667,2.3814840;0.2549667,1.3746090;0.2550000,1.2023440;0.2553000,-0.3550781;0.2553333,-0.4872656;0.2556333,-1.2325780;0.2556667,-1.2761720;0.2559667,-1.5539060;0.2560000,-1.5714840;0.2563000,-1.7282810;0.2563333,-1.7416410;0.2566333,-1.8773440;0.2566667,-1.8836720;0.2569000,-1.9342970;0.2572000,-1.9335940;0.2573000,-1.9089840;0.2573333,-1.8935160;0.2576333,-1.7107030;0.2576667,-1.6818750;0.2579667,-1.3689840;0.2580000,-1.3225780;0.2583000,-0.9379688;0.2583333,-0.8950781;0.2586333,-0.5442188;0.2586667,-0.5013281;0.2589667,-0.2088281;0.2590000,-0.1800000;0.2593000,-0.0541406;0.2594000,-0.0358594;0.2596333,-0.1469531;0.2596667,-0.1785938;0.2599667,-0.5976563;0.2600000,-0.6328125;0.2602667,-0.7825781;0.2603333,-0.7713281;0.2606333,-0.5878125;0.2606667,-0.5505469;0.2609667,-0.2151563;0.2610000,-0.1729688;0.2613000,0.1188281;0.2614000,0.1596094;0.2616333,0.0126563;0.2616667,-0.0281250;0.2619667,-0.3557813;0.2621333,-0.3902344;0.2623000,-0.3557813;0.2623333,-0.3396094;0.2626333,-0.1919531;0.2626667,-0.1617188;0.2629667,0.2988281;0.2630000,0.3135938;0.2632333,0.3846094;0.2634667,0.3367969;0.2636333,0.4092188;0.2637667,0.3986719;0.2639667,0.4971094;0.2640000,0.5266406;0.2643000,0.6377344;0.2645000,0.7368750;0.2646333,0.6405469;0.2646667,0.5498438;0.2649333,-0.9000000;0.2650000,-0.7924219;0.2653000,3.9297660;0.2653333,5.2509380;0.2654667,7.9931250;0.2656667,5.1609380;0.2659667,2.9397660;0.2660000,2.8167190;0.2663000,2.3857030;0.2663333,2.3765630;0.2666333,2.1529690;0.2666667,2.1135940;0.2669667,1.6312500;0.2670000,1.5813280;0.2673000,1.0399220;0.2673333,0.9752344;0.2676333,0.5371875;0.2676667,0.4914844;0.2679667,0.0597656;0.2680000,0.0316406;0.2681667,-0.0351562;0.2683333,0.0597656;0.2686333,0.2341406;0.2687667,0.2643750;0.2689667,0.2475000;0.2690000,0.2460938;0.2693000,0.1272656;0.2693333,0.1103906;0.2696333,-0.0773438;0.2696667,-0.0907031;0.2699667,-0.2193750;0.2700000,-0.2278125;0.2702667,-0.3157031;0.2703333,-0.3128906;0.2706333,-0.2390625;0.2706667,-0.2207813;0.2709667,-0.1125000;0.2710000,-0.0956250;0.2713000,0.0520313;0.2713333,0.0766406;0.2716333,0.2538281;0.2716667,0.2791406;0.2719667,0.5287500;0.2720000,0.5723438;0.2723000,1.0455470;0.2723333,1.1179690;0.2726333,1.8372660;0.2726667,1.9258590;0.2729667,2.4285940;0.2730000,2.4328130;0.2733000,1.6804690;0.2733333,1.5278910;0.2736333,-0.0379688;0.2736667,-0.1835156;0.2739667,-1.0209380;0.2740000,-1.0603130;0.2743000,-1.3204690;0.2743333,-1.3366410;0.2746333,-1.5032810;0.2746667,-1.5159380;0.2749667,-1.6945310;0.2750000,-1.7092970;0.2753000,-1.8400780;0.2753333,-1.8442970;0.2756000,-1.8942190;0.2756667,-1.8907030;0.2759667,-1.8365630;0.2760000,-1.8161720;0.2763000,-1.6136720;0.2763333,-1.5792190;0.2766333,-1.2614060;0.2766667,-1.2199220;0.2769667,-0.8704688;0.2770000,-0.8303906;0.2773000,-0.5885156;0.2773333,-0.5625000;0.2776333,-0.4260938;0.2777667,-0.3979688;0.2779667,-0.4858594;0.2780000,-0.5048438;0.2783000,-0.7389844;0.2785000,-0.7762500;0.2786333,-0.7361719;0.2786667,-0.7171875;0.2789667,-0.4668750;0.2790000,-0.4246875;0.2793000,-0.1539844;0.2794000,-0.1244531;0.2796333,-0.1856250;0.2796667,-0.1933594;0.2799667,-0.3325781;0.2800000,-0.3501563;0.2803000,-0.5997656;0.2803333,-0.6124219;0.2806000,-0.7073438;0.2806667,-0.6975000;0.2809667,-0.5871094;0.2810000,-0.5681250;0.2813000,-0.1785938;0.2813333,-0.1160156;0.2816333,0.0344531;0.2817000,0.0562500;0.2819333,-0.0914062;0.2821000,-0.0492187;0.2822667,-0.1075781;0.2823333,-0.0857813;0.2826333,0.0625781;0.2826667,0.0801562;0.2829667,0.2046094;0.2830000,0.2074219;0.2833000,-1.0518750;0.2835333,-1.3345310;0.2836333,-0.8142188;0.2836667,-0.2376563;0.2839333,6.9771090;0.2840000,6.4511720;0.2843000,2.7351560;0.2843333,2.5242190;0.2846333,1.3345310;0.2846667,1.2951560;0.2849667,0.9829688;0.2850000,0.9689063;0.2852667,0.8676563;0.2853667,0.8753906;0.2856333,0.7136719;0.2856667,0.6778125;0.2859667,0.2671875;0.2860000,0.2411719;0.2863000,0.0035156;0.2865000,-0.0330469;0.2866333,0.0232031;0.2866667,0.0527344;0.2869667,0.2763281;0.2870000,0.3002344;0.2871333,0.3564844;0.2873333,0.3262500;0.2876333,0.2594531;0.2876667,0.2517188;0.2879667,0.1406250;0.2880000,0.1293750;0.2883000,-0.0998437;0.2883333,-0.1307813;0.2886333,-0.4387500;0.2886667,-0.4612500;0.2889000,-0.5456250;0.2890000,-0.5245313;0.2893000,-0.4183594;0.2893333,-0.4028906;0.2896333,-0.3072656;0.2896667,-0.2925000;0.2899667,-0.1757813;0.2900000,-0.1560938;0.2903000,-0.0056250;0.2903333,0.0232031;0.2906333,0.3635156;0.2906667,0.4204688;0.2909667,1.0300780;0.2910000,1.1158590;0.2913000,1.8344530;0.2914667,2.0383590;0.2916333,1.8316410;0.2916667,1.7388280;0.2919667,0.3199219;0.2920000,0.1497656;0.2923000,-1.0160160;0.2923333,-1.0842190;0.2926333,-1.4519530;0.2926667,-1.4702340;0.2929667,-1.6481250;0.2930000,-1.6572660;0.2933000,-1.8147660;0.2933333,-1.8288280;0.2936333,-1.9919530;0.2936667,-2.0067190;0.2939667,-2.1937500;0.2940000,-2.2057030;0.2943000,-2.3231250;0.2943333,-2.3203130;0.2946333,-2.2753130;0.2946667,-2.2556250;0.2949667,-2.0889840;0.2950000,-2.0608590;0.2953000,-1.8667970;0.2953333,-1.8478130;0.2956333,-1.7831250;0.2956667,-1.7697660;0.2959667,-1.7142190;0.2960333,-1.7085940;0.2963000,-1.8028130;0.2965000,-1.8119530;0.2966333,-1.7845310;0.2966667,-1.7655470;0.2969667,-1.5862500;0.2970000,-1.5567190;0.2973000,-1.3401560;0.2973333,-1.3190630;0.2975000,-1.2628130;0.2976667,-1.2768750;0.2979667,-1.4343750;0.2980000,-1.4512500;0.2983000,-1.7240630;0.2983333,-1.7578130;0.2986333,-2.1114840;0.2986667,-2.1297660;0.2989667,-2.3034380;0.2990000,-2.3027340;0.2993000,-2.2352340;0.2993333,-2.2253910;0.2996333,-1.9167190;0.2996667,-1.8696090;0.2998000,-1.7936720;0.3000000,-1.7887500;0.3003000,-2.0503130;0.3003333,-2.0559380;0.3006333,-2.1789840;0.3006667,-2.1740630;0.3008000,-2.1269530;0.3010000,-2.1171090;0.3013000,-1.9835160;0.3013667,-1.9778910;0.3016333,-3.0135940;0.3016667,-3.1823440;0.3019333,-3.7504690;0.3020000,-3.1127340;0.3022667,5.0920310;0.3023333,4.7271090;0.3026333,0.9028125;0.3026667,0.6757031;0.3029667,-0.5224219;0.3030000,-0.5639063;0.3033000,-0.8507813;0.3034000,-0.8683594;0.3036333,-0.8339063;0.3036667,-0.8163281;0.3039667,-0.7080469;0.3040000,-0.7094531;0.3043000,-0.8479688;0.3043333,-0.8521875;0.3046333,-0.9161719;0.3046667,-0.9140625;0.3049667,-0.7882031;0.3050000,-0.7572656;0.3053000,-0.5385938;0.3053333,-0.5153906;0.3056333,-0.4092188;0.3056667,-0.4000781;0.3059667,-0.3473438;0.3061333,-0.3220313;0.3063000,-0.3473438;0.3063333,-0.3501563;0.3066333,-0.4352344;0.3066667,-0.4485938;0.3069667,-0.6236719;0.3070000,-0.6461719;0.3073000,-0.9351563;0.3073333,-0.9667969;0.3075000,-1.0589060;0.3076667,-1.0019530;0.3079667,-0.8634375;0.3080000,-0.8465625;0.3083000,-0.7143750;0.3083333,-0.6953906;0.3086333,-0.5217188;0.3086667,-0.4907813;0.3089667,-0.1244531;0.3090000,-0.0653906;0.3093000,0.6082031;0.3093333,0.7024219;0.3096333,1.4892190;0.3096667,1.5616410;0.3098333,1.7500780;0.3100000,1.5046880;0.3103000,0.1040625;0.3103333,-0.0696094;0.3106333,-1.2803910;0.3106667,-1.3549220;0.3109667,-1.7022660;0.3110000,-1.7135160;0.3112667,-1.7831250;0.3114333,-1.7697660;0.3116000,-1.7845310;0.3116667,-1.7760940;0.3119667,-1.7332030;0.3120000,-1.7205470;0.3121333,-1.6748440;0.3123333,-1.7114060;0.3126333,-1.5862500;0.3126667,-1.5553130;0.3129667,-1.3064060;0.3130000,-1.2712500;0.3133000,-1.0321880;0.3134333,-0.9956250;0.3136333,-1.0603130;0.3136667,-1.0722660;0.3139667,-1.2684380;0.3140000,-1.2803910;0.3143000,-1.4688280;0.3143333,-1.4934380;0.3146333,-1.7430470;0.3147000,-1.7514840;0.3149667,-1.6938280;0.3150000,-1.6706250;0.3153000,-1.4533590;0.3153333,-1.4182030;0.3156333,-1.1383590;0.3156667,-1.1088280;0.3159667,-1.0047660;0.3160333,-1.0012500;0.3163000,-1.0771880;0.3163333,-1.0849220;0.3166333,-1.2592970;0.3166667,-1.2874220;0.3169667,-1.5960940;0.3170000,-1.6157810;0.3173000,-1.8077340;0.3173667,-1.8126560;0.3176333,-1.7908590;0.3176667,-1.7845310;0.3179667,-1.4828910;0.3180000,-1.4484380;0.3181333,-1.4048440;0.3183333,-1.4048440;0.3186333,-1.6439060;0.3187333,-1.6347660;0.3189333,-1.7078910;0.3190000,-1.6966410;0.3191667,-1.6375780;0.3193333,-1.6249220;0.3196333,-1.4913280;0.3197000,-1.4751560;0.3199667,-2.4082030;0.3200000,-2.5713280;0.3202667,-3.2646090;0.3203333,-2.7372660;0.3206000,5.7220310;0.3206667,5.3845310;0.3209667,1.4498440;0.3210000,1.2234380;0.3213000,0.0949219;0.3213333,0.0555469;0.3216333,-0.1778906;0.3216667,-0.1764844;0.3219667,-0.0646875;0.3220000,-0.0386719;0.3223000,0.1195313;0.3223333,0.1223438;0.3226333,0.0675000;0.3226667,0.0682031;0.3228333,0.0773438;0.3230000,0.0745312;0.3233000,0.1870313;0.3233333,0.2193750;0.3236333,0.5266406;0.3236667,0.5568750;0.3239667,0.7171875;0.3240000,0.7347656;0.3243000,0.8704688;0.3243333,0.8803125;0.3245000,0.9260156;0.3246667,0.9028125;0.3249667,0.8219531;0.3250000,0.8071875;0.3253000,0.6637500;0.3253333,0.6525000;0.3256333,0.5203125;0.3256667,0.4950000;0.3259667,0.1652344;0.3260000,0.1610156;0.3263000,0.2200781;0.3263333,0.2327344;0.3266333,0.3522656;0.3266667,0.3663281;0.3269667,0.5252344;0.3270000,0.5512500;0.3273000,0.8943750;0.3273333,0.9485156;0.3276333,1.6038280;0.3276667,1.6924220;0.3279667,2.4623440;0.3280000,2.5305470;0.3281667,2.7091410;0.3283333,2.4602340;0.3286333,1.0645310;0.3286667,0.8845313;0.3289667,-0.3993750;0.3290000,-0.4886719;0.3293000,-0.9457031;0.3293333,-0.9710156;0.3296333,-1.1812500;0.3296667,-1.2009380;0.3299667,-1.3296090;0.3300000,-1.3387500;0.3303000,-1.4175000;0.3303333,-1.4273440;0.3306000,-1.5173440;0.3306667,-1.5011720;0.3309667,-1.4217190;0.3310000,-1.4048440;0.3313000,-1.2058590;0.3313333,-1.1777340;0.3316333,-0.9478125;0.3316667,-0.9246094;0.3318333,-0.8564063;0.3320000,-0.8725781;0.3323000,-1.0012500;0.3323333,-1.0195310;0.3326333,-1.2037500;0.3326667,-1.2192190;0.3329333,-1.2796880;0.3330000,-1.2635160;0.3333000,-1.0511720;0.3333333,-1.0160160;0.3336333,-0.6257813;0.3336667,-0.5737500;0.3339667,-0.1448438;0.3340000,-0.1033594;0.3343000,0.1919531;0.3343333,0.2137500;0.3344667,0.2650781;0.3346667,0.2137500;0.3349667,0.0541406;0.3350000,0.0316406;0.3353000,-0.2025000;0.3353333,-0.2144531;0.3356333,-0.2882813;0.3356667,-0.2819531;0.3359667,-0.1328906;0.3360000,-0.1167188;0.3363000,0.3093750;0.3363333,0.3592969;0.3366333,0.5617969;0.3367000,0.5871094;0.3369333,0.4964063;0.3370000,0.5167969;0.3373000,0.6060938;0.3373333,0.6264844;0.3376333,0.7896094;0.3376667,0.8142188;0.3379667,1.0750780;0.3380667,1.1250000;0.3383000,0.2046094;0.3383333,0.0548437;0.3385667,-0.2896875;0.3386667,0.4626563;0.3389333,8.5035940;0.3390000,8.0859380;0.3393000,4.4908590;0.3393333,4.2834380;0.3396333,3.1507030;0.3396667,3.1000780;0.3399667,2.6957810;0.3400000,2.6578130;0.3403000,2.4546090;0.3403333,2.4440630;0.3406333,2.2682810;0.3406667,2.2310160;0.3409667,1.8942190;0.3410000,1.8682030;0.3413000,1.5757030;0.3413333,1.5539060;0.3415000,1.5103130;0.3416667,1.5468750;0.3419667,1.7261720;0.3420000,1.7444530;0.3422000,1.8210940;0.3423333,1.8028130;0.3426333,1.7268750;0.3426667,1.7198440;0.3429667,1.6305470;0.3430000,1.6185940;0.3433000,1.5032810;0.3433333,1.4885160;0.3436333,1.4238280;0.3437667,1.4224220;0.3439667,1.4069530;0.3440000,1.4048440;0.3441333,1.4139840;0.3443333,1.4076560;0.3446333,1.4554690;0.3447667,1.4892190;0.3449667,1.4139840;0.3450000,1.4118750;0.3453000,1.5278910;0.3453333,1.5532030;0.3456333,1.8766410;0.3456667,1.9216410;0.3459667,2.5094530;0.3460000,2.5867970;0.3463000,3.2997660;0.3465000,3.5163280;0.3466333,3.3194530;0.3466667,3.2224220;0.3469667,1.7353130;0.3470000,1.5454690;0.3473000,0.2404688;0.3473333,0.1483594;0.3476333,-0.2861719;0.3476667,-0.3079688;0.3479667,-0.3557813;0.3481000,-0.3480469;0.3483000,-0.3825000;0.3484000,-0.3860156;0.3486333,-0.3944531;0.3486667,-0.3895313;0.3488667,-0.3487500;0.3490000,-0.3431250;0.3493000,-0.2566406;0.3493333,-0.2404688;0.3496333,-0.0379688;0.3496667,-0.0140625;0.3499667,0.2088281;0.3500000,0.2250000;0.3503000,0.3121875;0.3503333,0.3199219;0.3505000,0.3585938;0.3506667,0.3332813;0.3509667,0.2242969;0.3511333,0.2404688;0.3513000,0.2172656;0.3513333,0.2165625;0.3516333,0.2460938;0.3516667,0.2559375;0.3519667,0.4521094;0.3520000,0.4809375;0.3523000,0.7312500;0.3523333,0.7614844;0.3526333,1.0877340;0.3526667,1.1200780;0.3529667,1.3492970;0.3530000,1.3619530;0.3532333,1.4217190;0.3533333,1.4153910;0.3536333,1.1552340;0.3536667,1.1200780;0.3539667,0.9246094;0.3540000,0.9168750;0.3543000,0.9885938;0.3543333,1.0082810;0.3546333,1.2754690;0.3546667,1.3443750;0.3549667,1.6839840;0.3551000,1.7599220;0.3553000,1.6614840;0.3553333,1.6572660;0.3555000,1.7289840;0.3556667,1.6748440;0.3559000,1.7852340;0.3560000,1.7789060;0.3563000,1.8928130;0.3563667,1.8956250;0.3566333,1.2051560;0.3566667,0.9471094;0.3568000,0.3164063;0.3570000,0.7875000;0.3573000,8.3439840;0.3573333,8.6505470;0.3576333,5.0617970;0.3576667,4.7889840;0.3579667,3.3560160;0.3580000,3.2807810;0.3583000,3.0853130;0.3583333,3.0768750;0.3586333,2.8518750;0.3586667,2.8005470;0.3589667,2.2619530;0.3590000,2.1881250;0.3593000,1.6748440;0.3593333,1.6389840;0.3596333,1.3528130;0.3596667,1.3085160;0.3599667,1.0631250;0.3600000,1.0546880;0.3603000,1.1193750;0.3603333,1.1221880;0.3605333,1.1559380;0.3606667,1.1257030;0.3609667,1.0005470;0.3610000,0.9822656;0.3613000,0.8381250;0.3613333,0.8177344;0.3616333,0.6975000;0.3616667,0.6848438;0.3619667,0.6412500;0.3621000,0.6468750;0.3623000,0.5667188;0.3625000,0.5653125;0.3626333,0.5498438;0.3626667,0.5519531;0.3629667,0.6194531;0.3630000,0.6229688;0.3633000,0.7017188;0.3633333,0.7087500;0.3636333,0.8437500;0.3636667,0.8620313;0.3639667,1.1467970;0.3640000,1.1889840;0.3643000,1.7437500;0.3643333,1.8161720;0.3646333,2.4982030;0.3646667,2.5579690;0.3648667,2.7871880;0.3650000,2.6114060;0.3653000,1.3007810;0.3653333,1.0989840;0.3656333,-0.5153906;0.3656667,-0.6574219;0.3659667,-1.4491410;0.3660000,-1.5060940;0.3663000,-1.8281250;0.3663333,-1.8562500;0.3666333,-2.0805470;0.3666667,-2.1044530;0.3669667,-2.2549220;0.3670000,-2.2689840;0.3673000,-2.2837500;0.3673333,-2.2823440;0.3676333,-2.1923440;0.3676667,-2.1775780;0.3679667,-1.9821090;0.3680000,-1.9582030;0.3683000,-1.6839840;0.3683333,-1.6488280;0.3686333,-1.2768750;0.3686667,-1.2346880;0.3689667,-0.8831250;0.3690000,-0.8486719;0.3693000,-0.6243750;0.3693333,-0.6110156;0.3695667,-0.5329688;0.3697333,-0.5308594;0.3699667,-0.6686719;0.3700000,-0.7045313;0.3703000,-1.0884380;0.3703333,-1.1299220;0.3706333,-1.2839060;0.3706667,-1.2832030;0.3709667,-1.0947660;0.3710000,-1.0631250;0.3713000,-0.6679688;0.3713333,-0.6271875;0.3716333,-0.2608594;0.3718333,-0.1476563;0.3719667,-0.2355469;0.3720000,-0.2721094;0.3723000,-0.5449219;0.3724000,-0.5730469;0.3726333,-0.5196094;0.3726667,-0.5027344;0.3729667,-0.2995313;0.3730000,-0.2636719;0.3733000,0.1821094;0.3733333,0.1926563;0.3735667,0.2939063;0.3737333,0.2250000;0.3739333,0.2826563;0.3740667,0.2369531;0.3743000,0.3445313;0.3743333,0.3600000;0.3746333,0.4647656;0.3748333,0.5512500;0.3749667,0.3782813;0.3750000,0.2411719;0.3752333,-0.9935156;0.3753333,-0.7931250;0.3756333,4.8325780;0.3757667,7.6064060;0.3759667,4.8860160;0.3760000,4.4557030;0.3763000,2.5157810;0.3763333,2.3997660;0.3766333,2.0397660;0.3766667,2.0221880;0.3769667,1.8548440;0.3770000,1.8196880;0.3773000,1.3478910;0.3773333,1.2825000;0.3776333,0.6946875;0.3776667,0.6342188;0.3779667,0.3360938;0.3780000,0.3016406;0.3783000,-0.0091406;0.3784000,-0.0541406;0.3786333,0.0365625;0.3786667,0.0604688;0.3789667,0.1968750;0.3790000,0.1996875;0.3791667,0.2313281;0.3794333,0.2102344;0.3796333,0.1589063;0.3796667,0.1455469;0.3799667,0.0393750;0.3800000,0.0239063;0.3803000,-0.0379688;0.3803667,-0.0450000;0.3805000,-0.0309375;0.3806667,-0.0414844;0.3809667,0.0323437;0.3810000,0.0400781;0.3813000,0.1638281;0.3813333,0.1736719;0.3816333,0.3037500;0.3816667,0.3157031;0.3819667,0.4809375;0.3820000,0.4992188;0.3823000,0.7544531;0.3823333,0.7896094;0.3826333,1.2789840;0.3826667,1.3394530;0.3829667,1.9856250;0.3830000,2.0496090;0.3832667,2.4004690;0.3833333,2.3568750;0.3836333,1.3921880;0.3836667,1.2100780;0.3839667,-0.4556250;0.3840000,-0.6180469;0.3843000,-1.5454690;0.3843333,-1.6080470;0.3846333,-1.9012500;0.3846667,-1.9230470;0.3849667,-2.0868750;0.3850000,-2.1079690;0.3853000,-2.2190630;0.3854000,-2.2345310;0.3856333,-2.2232810;0.3856667,-2.2218750;0.3859667,-2.0953130;0.3860000,-2.0812500;0.3863000,-1.8203910;0.3863333,-1.7894530;0.3866333,-1.4519530;0.3866667,-1.4175000;0.3869667,-1.0293750;0.3870000,-0.9900000;0.3873000,-0.5842969;0.3873333,-0.5491406;0.3876333,-0.2608594;0.3876667,-0.2439844;0.3879000,-0.1645313;0.3881000,-0.1596094;0.3883000,-0.2728125;0.3883333,-0.3114844;0.3886333,-0.7347656;0.3886667,-0.7839844;0.3889667,-1.0054690;0.3890000,-1.0125000;0.3893000,-0.8852344;0.3893333,-0.8606250;0.3896333,-0.4640625;0.3896667,-0.4141406;0.3899667,0.0682031;0.3900000,0.1019531;0.3902000,0.2130469;0.3903333,0.1251563;0.3906333,-0.2805469;0.3906667,-0.3142969;0.3908667,-0.3832031;0.3910000,-0.3726563;0.3913000,-0.2039063;0.3913333,-0.1870313;0.3916333,0.2362500;0.3916667,0.2910938;0.3919667,0.4865625;0.3920000,0.4914844;0.3922333,0.4260938;0.3923333,0.4507031;0.3924333,0.4893750;0.3926667,0.4865625;0.3928667,0.6039844;0.3930000,0.6082031;0.3932333,0.7129688;0.3933333,0.6862500;0.3936333,-0.7980469;0.3937000,-0.9773438;0.3939667,0.6018750;0.3940000,1.3289060;0.3942333,7.6092190;0.3943333,6.5896880;0.3946333,3.2301560;0.3946667,3.0557810;0.3949667,2.2422660;0.3950000,2.2239840;0.3953000,2.0854690;0.3953333,2.0552340;0.3956333,1.6924220;0.3956667,1.6298440;0.3959667,1.0989840;0.3960000,1.0223440;0.3963000,0.5357813;0.3963333,0.5013281;0.3966333,0.1631250;0.3966667,0.1223438;0.3969667,-0.0302344;0.3970000,-0.0309375;0.3973000,0.1420313;0.3973333,0.1497656;0.3975667,0.2151563;0.3976667,0.2025000;0.3979667,0.1575000;0.3980000,0.1385156;0.3983000,-0.0534375;0.3983333,-0.0857813;0.3986333,-0.2425781;0.3986667,-0.2573438;0.3987333,-0.2707031;0.3990000,-0.2756250;0.3993000,-0.1905469;0.3993333,-0.1842188;0.3996333,-0.0632812;0.3996667,-0.0611719;0.3999667,0.0337500;0.4000000,0.0407812;0.4003000,0.2123438;0.4003333,0.2271094;0.4006333,0.4647656;0.4006667,0.4893750;0.4009667,0.8852344;0.4010000,0.9358594;0.4013000,1.5834380;0.4013333,1.6572660;0.4016333,2.2732030;0.4017667,2.3456250;0.4019667,1.9701560;0.4020000,1.8400780;0.4023000,0.2594531;0.4023333,0.0660938;0.4026333,-1.1664840;0.4026667,-1.2578910;0.4029667,-1.7135160;0.4030000,-1.7528910;0.4033000,-1.9954690;0.4033333,-2.0235940;0.4036333,-2.2021880;0.4036667,-2.2253910;0.4039667,-2.3308590;0.4040667,-2.3540630;0.4042667,-2.3428130;0.4043333,-2.3435160;0.4046333,-2.2282030;0.4046667,-2.2127340;0.4049667,-1.9764840;0.4050000,-1.9525780;0.4053000,-1.6263280;0.4053333,-1.5918750;0.4056333,-1.2044530;0.4056667,-1.1664840;0.4059667,-0.8233594;0.4060000,-0.7994531;0.4063000,-0.6025781;0.4063333,-0.5927344;0.4065667,-0.5083594;0.4066667,-0.5182031;0.4069667,-0.7087500;0.4070000,-0.7516406;0.4073000,-1.0427340;0.4074000,-1.0884380;0.4076333,-1.0357030;0.4076667,-1.0237500;0.4079667,-0.7284375;0.4080000,-0.6904688;0.4083000,-0.2988281;0.4083333,-0.2594531;0.4086000,-0.0703125;0.4086667,-0.0801562;0.4089667,-0.3733594;0.4090000,-0.4183594;0.4092333,-0.5125781;0.4093333,-0.5083594;0.4096333,-0.3543750;0.4096667,-0.3353906;0.4099667,-0.0752344;0.4100000,-0.0161719;0.4103000,0.3009375;0.4104667,0.3410156;0.4106333,0.2601563;0.4106667,0.2524219;0.4108667,0.3346875;0.4110333,0.2756250;0.4112667,0.4113281;0.4113667,0.3972656;0.4116333,0.5287500;0.4116667,0.5315625;0.4119667,-0.1638281;0.4120000,-0.4359375;0.4121333,-1.1165630;0.4123333,-0.4795313;0.4126333,7.2984380;0.4126667,7.5642190;0.4129667,3.8692970;0.4130000,3.5943750;0.4133000,2.2197660;0.4133333,2.1438280;0.4136333,1.9455470;0.4136667,1.9146090;0.4139667,1.6038280;0.4140000,1.5553130;0.4143000,1.0673440;0.4143333,1.0012500;0.4146333,0.4225781;0.4146667,0.3677344;0.4149667,0.0597656;0.4150000,0.0091406;0.4153000,-0.2770313;0.4153667,-0.3037500;0.4156333,-0.1757813;0.4156667,-0.1645313;0.4159333,-0.0885937;0.4160000,-0.0949219;0.4163000,-0.1504688;0.4163333,-0.1680469;0.4166333,-0.2896875;0.4166667,-0.3171094;0.4169667,-0.5104688;0.4170000,-0.5357813;0.4173000,-0.6489844;0.4173333,-0.6616406;0.4174333,-0.6771094;0.4176667,-0.6742969;0.4179667,-0.5814844;0.4180000,-0.5765625;0.4183000,-0.4858594;0.4183333,-0.4823438;0.4186333,-0.3262500;0.4186667,-0.3135938;0.4189667,-0.1357031;0.4190000,-0.1188281;0.4193000,0.1891406;0.4193333,0.2292188;0.4196333,0.8388281;0.4196667,0.9105469;0.4199667,1.6214060;0.4200000,1.6811720;0.4202000,1.9040630;0.4203333,1.7599220;0.4206333,0.4914844;0.4206667,0.2974219;0.4209667,-1.1763280;0.4210000,-1.3007810;0.4213000,-1.9132030;0.4213333,-1.9567970;0.4216333,-2.1909380;0.4216667,-2.2239840;0.4219667,-2.4349220;0.4220000,-2.4623440;0.4223000,-2.6360160;0.4223333,-2.6585160;0.4226333,-2.7302340;0.4227333,-2.7534380;0.4229667,-2.7232030;0.4230000,-2.7210940;0.4233000,-2.5389840;0.4233333,-2.5143750;0.4236333,-2.1614060;0.4236667,-2.1276560;0.4239667,-1.6818750;0.4240000,-1.6375780;0.4243000,-1.2346880;0.4243333,-1.2037500;0.4246333,-0.9541406;0.4246667,-0.9400781;0.4249333,-0.8613281;0.4250000,-0.8697656;0.4253000,-0.9991406;0.4253333,-1.0357030;0.4256333,-1.3689840;0.4256667,-1.4076560;0.4259000,-1.5271880;0.4260000,-1.5173440;0.4263000,-1.3141410;0.4263333,-1.2881250;0.4266333,-0.9506250;0.4266667,-0.9182813;0.4269667,-0.6300000;0.4270333,-0.6194531;0.4273000,-0.7896094;0.4273333,-0.8423438;0.4276333,-1.1200780;0.4277333,-1.1482030;0.4279667,-1.0680470;0.4280000,-1.0575000;0.4283000,-0.8718750;0.4283333,-0.8465625;0.4286333,-0.3607031;0.4286667,-0.3487500;0.4289000,-0.2453906;0.4291000,-0.3227344;0.4293000,-0.2700000;0.4294667,-0.3367969;0.4296333,-0.2580469;0.4296667,-0.2418750;0.4299667,-0.1666406;0.4302000,-0.0956250;0.4303000,-0.1856250;0.4303333,-0.2889844;0.4306000,-1.7648440;0.4306667,-1.6875000;0.4309667,3.0262500;0.4310000,4.3312500;0.4311333,7.0080470;0.4313333,4.1807810;0.4316333,1.9680470;0.4316667,1.8330470;0.4319667,1.3668750;0.4320000,1.3478910;0.4323000,1.1130470;0.4323333,1.0778910;0.4326333,0.6750000;0.4326667,0.6145313;0.4329667,0.0372656;0.4330000,-0.0421875;0.4333000,-0.4464844;0.4333333,-0.4788281;0.4336333,-0.8535938;0.4338000,-0.9667969;0.4339667,-0.8887500;0.4340000,-0.8655469;0.4343000,-0.6778125;0.4343333,-0.6757031;0.4345667,-0.6215625;0.4346667,-0.6398438;0.4349667,-0.7157813;0.4350000,-0.7382813;0.4353000,-0.8753906;0.4353333,-0.8950781;0.4356333,-1.0082810;0.4356667,-1.0237500;0.4359667,-1.0933590;0.4360667,-1.1074220;0.4363000,-1.0279690;0.4363333,-1.0188280;0.4366333,-0.8760938;0.4366667,-0.8641406;0.4369667,-0.7052344;0.4370000,-0.6904688;0.4373000,-0.5146875;0.4373333,-0.4992188;0.4376333,-0.2917969;0.4376667,-0.2650781;0.4379667,0.1666406;0.4380000,0.2285156;0.4383000,0.9442969;0.4383333,1.0244530;0.4386333,1.5489840;0.4386667,1.5489840;0.4389667,0.8219531;0.4390000,0.6574219;0.4393000,-0.9316406;0.4393333,-1.0891410;0.4396333,-1.9589060;0.4396667,-2.0130470;0.4399667,-2.3175000;0.4400000,-2.3477340;0.4403000,-2.5439060;0.4403333,-2.5685160;0.4406333,-2.7253130;0.4406667,-2.7421880;0.4409667,-2.8096880;0.4410667,-2.8230470;0.4413000,-2.7871880;0.4413333,-2.7822660;0.4416333,-2.6486720;0.4416667,-2.6325000;0.4419667,-2.4131250;0.4420000,-2.3920310;0.4423000,-2.0917970;0.4423333,-2.0559380;0.4426333,-1.6748440;0.4426667,-1.6375780;0.4429667,-1.3204690;0.4430000,-1.2951560;0.4433000,-1.0814060;0.4434667,-1.0553910;0.4436333,-1.0968750;0.4436667,-1.1207810;0.4439667,-1.3584380;0.4440000,-1.3823440;0.4441333,-1.4329690;0.4443333,-1.3795310;0.4446333,-1.1257030;0.4446667,-1.0912500;0.4449667,-0.7917188;0.4451333,-0.7551563;0.4453000,-0.7910156;0.4453333,-0.8092969;0.4456333,-0.9724219;0.4456667,-0.9991406;0.4459667,-1.2248440;0.4460000,-1.2431250;0.4463000,-1.3345310;0.4464000,-1.3535160;0.4466333,-1.2557810;0.4466667,-1.2466410;0.4469667,-0.8402344;0.4470000,-0.7931250;0.4473000,-0.6489844;0.4473333,-0.6405469;0.4476000,-0.7439063;0.4476667,-0.7375781;0.4477667,-0.7185938;0.4480000,-0.7073438;0.4483000,-0.5540625;0.4483333,-0.5400000;0.4486333,-0.4092188;0.4486667,-0.4113281;0.4489667,-1.6657030;0.4490667,-1.9174220;0.4493000,-1.2508590;0.4493333,-0.6342188;0.4496000,6.4567970;0.4496667,5.8141410;0.4499667,2.1628130;0.4500000,1.9553910;0.4503000,0.8493750;0.4503333,0.8071875;0.4506333,0.4893750;0.4506667,0.4612500;0.4509667,0.3353906;0.4510000,0.3234375;0.4513000,0.1849219;0.4513333,0.1455469;0.4516333,-0.2460938;0.4516667,-0.2854688;0.4519667,-0.5864063;0.4520000,-0.6131250;0.4522000,-0.6918750;0.4523333,-0.6525000;0.4526333,-0.4753125;0.4526667,-0.4598438;0.4529333,-0.3888281;0.4531000,-0.4042969;0.4532333,-0.3874219;0.4533333,-0.3951563;0.4536333,-0.5048438;0.4536667,-0.5252344;0.4539667,-0.7537500;0.4540000,-0.7889063;0.4543000,-1.0764840;0.4543333,-1.1060160;0.4546333,-1.1974220;0.4546667,-1.1960160;0.4549667,-1.0638280;0.4550000,-1.0469530;0.4553000,-0.9119531;0.4553333,-0.9000000;0.4556333,-0.7481250;0.4556667,-0.7361719;0.4559667,-0.5772656;0.4560000,-0.5547656;0.4563000,-0.2186719;0.4563333,-0.1743750;0.4566333,0.4092188;0.4566667,0.4865625;0.4569667,1.1946090;0.4571667,1.3851560;0.4573000,1.1910940;0.4573333,1.0919530;0.4576333,-0.2925000;0.4576667,-0.4703906;0.4579667,-1.6579690;0.4580000,-1.7339060;0.4583000,-2.0608590;0.4583333,-2.0854690;0.4586333,-2.2542190;0.4586667,-2.2746090;0.4589667,-2.4658590;0.4590000,-2.4911720;0.4593000,-2.6810160;0.4593333,-2.6992970;0.4596333,-2.8357030;0.4596667,-2.8532810;0.4599667,-2.9207810;0.4600333,-2.9228910;0.4603000,-2.8125000;0.4603333,-2.7942190;0.4606333,-2.6107030;0.4606667,-2.5896090;0.4609667,-2.3625000;0.4610000,-2.3449220;0.4613000,-2.1972660;0.4613333,-2.1839060;0.4616333,-2.0517190;0.4616667,-2.0446880;0.4619000,-2.0221880;0.4620667,-2.0348440;0.4623000,-1.9293750;0.4623333,-1.9089840;0.4626333,-1.6685160;0.4626667,-1.6425000;0.4629667,-1.3598440;0.4630000,-1.3366410;0.4632667,-1.2473440;0.4633333,-1.2564840;0.4636333,-1.3746090;0.4636667,-1.3985160;0.4639667,-1.6143750;0.4640000,-1.6389840;0.4643000,-1.9645310;0.4643333,-2.0003910;0.4646333,-2.2148440;0.4648000,-2.2774220;0.4649667,-2.2148440;0.4650000,-2.2035940;0.4653000,-1.9898440;0.4653333,-1.9328910;0.4656333,-1.6896090;0.4656667,-1.6910160;0.4659667,-1.8323440;0.4660000,-1.8632810;0.4663000,-1.9575000;0.4664333,-2.0067190;0.4666333,-1.9335940;0.4667333,-1.9420310;0.4669667,-1.8267190;0.4670333,-1.8084380;0.4673000,-2.1093750;0.4673333,-2.2914840;0.4676333,-3.3328130;0.4677000,-3.5613280;0.4679667,3.5915630;0.4680667,5.2593750;0.4683000,2.1100780;0.4683333,1.7613280;0.4686333,-0.0942188;0.4686667,-0.1975781;0.4689667,-0.6349219;0.4690000,-0.6735938;0.4693000,-0.7839844;0.4693667,-0.7860938;0.4696333,-0.6904688;0.4697000,-0.6806250;0.4699667,-0.7706250;0.4700000,-0.7875000;0.4703000,-0.8676563;0.4704333,-0.9126563;0.4706333,-0.8578125;0.4706667,-0.8402344;0.4709667,-0.6229688;0.4710000,-0.6018750;0.4713000,-0.3944531;0.4713333,-0.3839063;0.4716333,-0.3389063;0.4716667,-0.3346875;0.4719333,-0.3037500;0.4720000,-0.3079688;0.4723000,-0.3635156;0.4723333,-0.3768750;0.4726333,-0.5336719;0.4726667,-0.5547656;0.4729667,-0.7467188;0.4730000,-0.7755469;0.4733000,-1.0328910;0.4734000,-1.0582030;0.4736333,-0.9710156;0.4736667,-0.9604688;0.4739667,-0.8437500;0.4740000,-0.8303906;0.4743000,-0.6778125;0.4743333,-0.6623438;0.4746333,-0.4099219;0.4746667,-0.3705469;0.4749667,0.1251563;0.4750000,0.1961719;0.4753000,0.9351563;0.4753333,1.0153130;0.4756000,1.4512500;0.4756667,1.4245310;0.4759667,0.4050000;0.4760000,0.2235938;0.4763000,-1.3064060;0.4763333,-1.4329690;0.4766333,-2.0707030;0.4766667,-2.1016410;0.4769667,-2.2549220;0.4770000,-2.2668750;0.4773000,-2.3041410;0.4773333,-2.3104690;0.4774667,-2.3336720;0.4777333,-2.3400000;0.4779667,-2.2907810;0.4780000,-2.2809380;0.4783000,-2.1424220;0.4783333,-2.1220310;0.4786333,-1.8379690;0.4786667,-1.7985940;0.4789667,-1.4182030;0.4790000,-1.3844530;0.4793000,-1.1425780;0.4793333,-1.1383590;0.4796333,-1.3373440;0.4796667,-1.3725000;0.4799667,-1.5764060;0.4800000,-1.5939840;0.4803000,-1.7859380;0.4803333,-1.8049220;0.4805000,-1.8815630;0.4806667,-1.8604690;0.4809667,-1.6396880;0.4810000,-1.6066410;0.4813000,-1.2803910;0.4813333,-1.2438280;0.4816333,-1.0188280;0.4817000,-1.0019530;0.4819667,-1.0490630;0.4820000,-1.0652340;0.4823000,-1.2107810;0.4823333,-1.2311720;0.4826333,-1.5131250;0.4826667,-1.5546090;0.4829667,-1.7817190;0.4830000,-1.8035160;0.4831667,-1.8801560;0.4833333,-1.8372660;0.4836333,-1.7050780;0.4836667,-1.6593750;0.4839667,-1.3563280;0.4842000,-1.3324220;0.4843000,-1.3907810;0.4843333,-1.4245310;0.4846333,-1.5321090;0.4848000,-1.5932810;0.4849667,-1.5187500;0.4851000,-1.5250780;0.4853000,-1.4062500;0.4853333,-1.3858590;0.4855667,-1.2986720;0.4856667,-1.4231250;0.4859000,-2.4595310;0.4861000,-2.9903910;0.4863000,1.5447660;0.4863333,3.0171090;0.4864667,5.9681250;0.4866667,3.1471880;0.4869667,0.8381250;0.4870000,0.6996094;0.4873000,0.1406250;0.4873333,0.1061719;0.4875000,-0.0168750;0.4876667,0.0281250;0.4879667,0.1673438;0.4880667,0.1863281;0.4883000,0.1511719;0.4883333,0.1385156;0.4886333,0.0667969;0.4886667,0.0562500;0.4889667,-0.0028125;0.4890000,-0.0028125;0.4893000,0.1441406;0.4893333,0.1708594;0.4896333,0.3747656;0.4896667,0.3874219;0.4899667,0.4795313;0.4900000,0.4900781;0.4903000,0.6222656;0.4903667,0.6321094;0.4906333,0.5561719;0.4906667,0.5385938;0.4909667,0.4521094;0.4910000,0.4387500;0.4913000,0.2939063;0.4913333,0.2791406;0.4916333,0.1469531;0.4916667,0.1209375;0.4919667,-0.2889844;0.4921000,-0.3185156;0.4923000,-0.2636719;0.4923333,-0.2531250;0.4926333,-0.1153125;0.4926667,-0.0956250;0.4929667,0.1068750;0.4930000,0.1392188;0.4933000,0.5765625;0.4933333,0.6384375;0.4936333,1.3774220;0.4936667,1.4688280;0.4939667,2.1185160;0.4940333,2.1522660;0.4943000,1.5391410;0.4943333,1.3844530;0.4946333,-0.1785938;0.4946667,-0.3325781;0.4949667,-1.1925000;0.4950000,-1.2459380;0.4953000,-1.5426560;0.4953333,-1.5658590;0.4956333,-1.7367190;0.4956667,-1.7550000;0.4959667,-1.8808590;0.4960000,-1.8907030;0.4963000,-2.0228910;0.4964333,-2.0496090;0.4966333,-2.0046090;0.4966667,-1.9954690;0.4969667,-1.8372660;0.4970000,-1.8126560;0.4973000,-1.5679690;0.4973333,-1.5405470;0.4976333,-1.3366410;0.4977000,-1.3190630;0.4979667,-1.3415630;0.4980000,-1.3570310;0.4983000,-1.5588280;0.4983333,-1.5834380;0.4986333,-1.7592190;0.4988000,-1.8140630;0.4989667,-1.7578130;0.4990000,-1.7409380;0.4993000,-1.4723440;0.4993333,-1.4315630;0.4996333,-1.0019530;0.4996667,-0.9513281;0.4999667,-0.5674219;0.5000000,-0.5322656;0.5003000,-0.3445313;0.5003333,-0.3389063;0.5006333,-0.3909375;0.5006667,-0.4050000;0.5009667,-0.5505469;0.5010000,-0.5779688;0.5013000,-0.7277344;0.5014667,-0.7769531;0.5016333,-0.7221094;0.5016667,-0.7024219;0.5019667,-0.5097656;0.5020000,-0.4781250;0.5023000,0.0203906;0.5023333,0.0421875;0.5026333,0.1729688;0.5026667,0.1617188;0.5028333,0.0752344;0.5030000,0.1244531;0.5031667,0.0724219;0.5033333,0.1399219;0.5036333,0.2165625;0.5036667,0.2341406;0.5039333,0.3649219;0.5040000,0.3459375;0.5043000,-0.8114063;0.5045000,-1.0877340;0.5046333,1.0792970;0.5046667,2.3238280;0.5048667,7.6865630;0.5050000,5.9435160;0.5053000,3.2203130;0.5053333,3.0621090;0.5056333,2.2928910;0.5056667,2.2492970;0.5059667,1.8963280;0.5060000,1.8689060;0.5063000,1.7008590;0.5063333,1.6924220;0.5066333,1.4477340;0.5066667,1.4020310;0.5069667,1.1404690;0.5070000,1.1165630;0.5073000,0.8894531;0.5074333,0.8557031;0.5076333,0.9660938;0.5076667,0.9878906;0.5079667,1.1988280;0.5080000,1.2178130;0.5083000,1.2839060;0.5084667,1.2705470;0.5086333,1.2895310;0.5086667,1.2916410;0.5089667,1.2452340;0.5090000,1.2367970;0.5093000,1.1650780;0.5094667,1.1390630;0.5096333,1.1756250;0.5096667,1.1826560;0.5099667,1.2979690;0.5100000,1.3127340;0.5103000,1.4238280;0.5103333,1.4357810;0.5106333,1.5637500;0.5106667,1.5792190;0.5109667,1.7325000;0.5110000,1.7578130;0.5113000,1.9743750;0.5113333,2.0053130;0.5116333,2.4307030;0.5116667,2.4975000;0.5119667,3.2259380;0.5120000,3.3159380;0.5123000,4.0028910;0.5124000,4.0914840;0.5126333,3.7061720;0.5126667,3.5767970;0.5129667,2.0060160;0.5130000,1.8323440;0.5133000,0.5899219;0.5133333,0.5027344;0.5136333,0.0864844;0.5136667,0.0667969;0.5138333,0.0267187;0.5140000,0.0253125;0.5143000,-0.0400781;0.5144667,-0.0646875;0.5146333,-0.0428906;0.5146667,-0.0400781;0.5149667,0.0126563;0.5150000,0.0210938;0.5153000,0.1673438;0.5153333,0.1912500;0.5156333,0.4485938;0.5156667,0.4725000;0.5159667,0.6004688;0.5160000,0.6103125;0.5163000,0.6644531;0.5163333,0.6665625;0.5166333,0.6166406;0.5166667,0.5983594;0.5169667,0.4654688;0.5170000,0.4619531;0.5171333,0.4514063;0.5173333,0.4626563;0.5176333,0.5315625;0.5176667,0.5449219;0.5179667,0.7291406;0.5180000,0.7488281;0.5183000,0.9801563;0.5183333,1.0110940;0.5186333,1.3204690;0.5186667,1.3528130;0.5189667,1.5447660;0.5190000,1.5539060;0.5192333,1.5651560;0.5193333,1.5412500;0.5196333,1.2424220;0.5196667,1.2128910;0.5199667,1.0778910;0.5200000,1.0785940;0.5203000,1.1889840;0.5203333,1.2086720;0.5206333,1.5229690;0.5206667,1.5876560;0.5209667,1.8126560;0.5210333,1.8337500;0.5213000,1.7240630;0.5214333,1.7451560;0.5216333,1.6973440;0.5216667,1.6994530;0.5219000,1.7831250;0.5220000,1.7831250;0.5223000,1.8576560;0.5223333,1.8569530;0.5226333,0.8810156;0.5227667,0.3023438;0.5229667,0.7959375;0.5230000,1.1257030;0.5233000,8.5675780;0.5233333,8.4649220;0.5236333,4.7791410;0.5236667,4.5611720;0.5239667,3.3651560;0.5240000,3.3089060;0.5243000,3.0642190;0.5243333,3.0360940;0.5246333,2.7471090;0.5246667,2.7105470;0.5249667,2.2661720;0.5250000,2.2085160;0.5253000,1.8253130;0.5253333,1.8014060;0.5256333,1.5475780;0.5256667,1.5180470;0.5259333,1.3767190;0.5260000,1.3823440;0.5263000,1.5236720;0.5263333,1.5342190;0.5265333,1.5539060;0.5266667,1.5335160;0.5269667,1.4076560;0.5270000,1.3942970;0.5273000,1.2691410;0.5273333,1.2578910;0.5276333,1.1186720;0.5276667,1.1074220;0.5278333,1.0680470;0.5280000,1.0800000;0.5283000,1.1559380;0.5284000,1.1932030;0.5286333,1.1257030;0.5288333,1.0954690;0.5289667,1.1257030;0.5290000,1.1348440;0.5293000,1.2297660;0.5293333,1.2424220;0.5296333,1.3753130;0.5296667,1.3942970;0.5299667,1.6825780;0.5300000,1.7247660;0.5303000,2.2035940;0.5303333,2.2703910;0.5306333,2.9017970;0.5308000,3.0810940;0.5309667,2.9257030;0.5310000,2.8385160;0.5313000,1.4090630;0.5313333,1.2079690;0.5316333,-0.3578906;0.5316667,-0.4830469;0.5319667,-1.1917970;0.5320000,-1.2382030;0.5323000,-1.5384380;0.5323333,-1.5644530;0.5326333,-1.7564060;0.5326667,-1.7739840;0.5329667,-1.9117970;0.5330000,-1.9223440;0.5331667,-1.9596090;0.5333333,-1.9469530;0.5336333,-1.8653910;0.5336667,-1.8492190;0.5339667,-1.6073440;0.5340000,-1.5721880;0.5343000,-1.2543750;0.5343333,-1.2157030;0.5346333,-0.8325000;0.5346667,-0.7889063;0.5349667,-0.4605469;0.5350000,-0.4260938;0.5353000,-0.2376563;0.5353333,-0.2278125;0.5356333,-0.1947656;0.5356667,-0.1989844;0.5359667,-0.3789844;0.5360000,-0.4113281;0.5363000,-0.7818750;0.5363333,-0.8170313;0.5365667,-0.9407813;0.5366667,-0.9260156;0.5369667,-0.7221094;0.5370000,-0.6848438;0.5373000,-0.2728125;0.5373333,-0.2292188;0.5376333,0.1167188;0.5376667,0.1406250;0.5378333,0.1996875;0.5380000,0.1160156;0.5383000,-0.1680469;0.5384333,-0.1940625;0.5386333,-0.1258594;0.5386667,-0.1068750;0.5389667,0.1075781;0.5390000,0.1357031;0.5393000,0.6391406;0.5393333,0.6630469;0.5396000,0.7558594;0.5396667,0.7284375;0.5398333,0.6461719;0.5401667,0.6285938;0.5403000,0.7024219;0.5403333,0.7298438;0.5406333,0.8760938;0.5406667,0.8992969;0.5409000,0.9682031;0.5410000,0.8627344;0.5412667,-0.5709375;0.5413333,-0.4900781;0.5416333,3.3658590;0.5416667,4.5703130;0.5418333,7.9214060;0.5420000,5.5715630;0.5423000,3.1703910;0.5423333,3.0325780;0.5426333,2.4785160;0.5426667,2.4672660;0.5429667,2.2865630;0.5430000,2.2619530;0.5433000,1.8604690;0.5433333,1.8056250;0.5436333,1.2128910;0.5436667,1.1439840;0.5439667,0.8008594;0.5440000,0.7762500;0.5443000,0.4478906;0.5444667,0.3656250;0.5446333,0.4485938;0.5446667,0.4774219;0.5449667,0.6384375;0.5450333,0.6503906;0.5453000,0.6257813;0.5453333,0.6194531;0.5456333,0.5160938;0.5456667,0.4992188;0.5459667,0.3051563;0.5460000,0.2896875;0.5463000,0.1947656;0.5463333,0.1912500;0.5465333,0.1575000;0.5466667,0.1708594;0.5469667,0.2285156;0.5470000,0.2418750;0.5473000,0.3522656;0.5473333,0.3677344;0.5476333,0.4795313;0.5476667,0.4985156;0.5479667,0.6588281;0.5480000,0.6813281;0.5483000,0.9168750;0.5483333,0.9527344;0.5486333,1.3619530;0.5486667,1.4252340;0.5489667,2.0538280;0.5490000,2.1297660;0.5493000,2.6353130;0.5493667,2.6514840;0.5496333,2.0165630;0.5496667,1.8675000;0.5499667,0.2362500;0.5500000,0.0646875;0.5503000,-1.0350000;0.5503333,-1.1017970;0.5506333,-1.4737500;0.5506667,-1.4920310;0.5509667,-1.6706250;0.5510000,-1.6896090;0.5513000,-1.8471090;0.5513333,-1.8597660;0.5515333,-1.9251560;0.5516667,-1.9174220;0.5519667,-1.8534380;0.5520000,-1.8351560;0.5523000,-1.6319530;0.5523333,-1.5989060;0.5526333,-1.3162500;0.5526667,-1.2839060;0.5529667,-0.9639844;0.5530000,-0.9203906;0.5533000,-0.5533594;0.5533333,-0.5132813;0.5536333,-0.2313281;0.5536667,-0.2067188;0.5539667,-0.0330469;0.5540000,-0.0175781;0.5541000,0.0056250;0.5543333,-0.0281250;0.5546333,-0.3684375;0.5546667,-0.4106250;0.5549667,-0.6693750;0.5551333,-0.7059375;0.5553000,-0.6300000;0.5553333,-0.6053906;0.5556333,-0.2896875;0.5556667,-0.2418750;0.5559667,0.1427344;0.5560000,0.1807031;0.5562667,0.3396094;0.5563333,0.3290625;0.5566333,-0.0161719;0.5566667,-0.0499219;0.5568667,-0.1729688;0.5570000,-0.1504688;0.5573000,-0.0442969;0.5573333,-0.0232031;0.5576333,0.2714063;0.5576667,0.3438281;0.5579667,0.6855469;0.5581000,0.7558594;0.5582667,0.6911719;0.5583333,0.6975000;0.5585000,0.7579688;0.5586667,0.7544531;0.5589667,0.9344531;0.5590000,0.9400781;0.5593000,1.0828130;0.5593667,1.0912500;0.5596333,0.1849219;0.5598000,-0.5702344;0.5599667,-0.0084375;0.5600000,0.3044531;0.5603000,7.9235160;0.5603333,7.9446090;0.5606333,4.1540630;0.5606667,3.9178130;0.5609667,2.6760940;0.5610000,2.6226560;0.5613000,2.4349220;0.5613333,2.4096090;0.5616333,2.0840630;0.5616667,2.0320310;0.5619667,1.5166410;0.5620000,1.4498440;0.5623000,0.8367188;0.5623333,0.8022656;0.5626333,0.4851563;0.5626667,0.4422656;0.5629667,0.1617188;0.5630000,0.1610156;0.5633000,0.3353906;0.5633333,0.3571875;0.5636333,0.4542188;0.5636667,0.4577344;0.5639667,0.3972656;0.5640000,0.3881250;0.5643000,0.2320313;0.5643333,0.2144531;0.5646333,0.0471094;0.5646667,0.0358594;0.5649333,-0.0492187;0.5650000,-0.0428906;0.5653000,0.0063281;0.5653333,0.0196875;0.5656333,0.1110938;0.5656667,0.1279688;0.5659667,0.2833594;0.5660000,0.3058594;0.5663000,0.4900781;0.5663333,0.5146875;0.5666333,0.7403906;0.5666667,0.7741406;0.5669667,1.1081250;0.5670000,1.1580470;0.5673000,1.7142190;0.5673333,1.7943750;0.5676333,2.4827340;0.5676667,2.5523440;0.5678333,2.7478130;0.5680000,2.5952340;0.5683000,1.3211720;0.5683333,1.1383590;0.5686333,-0.3382031;0.5686667,-0.4535156;0.5689667,-1.0919530;0.5690000,-1.1327340;0.5693000,-1.4231250;0.5693333,-1.4456250;0.5696333,-1.6101560;0.5696667,-1.6228130;0.5699667,-1.7528910;0.5700000,-1.7592190;0.5702000,-1.8000000;0.5703333,-1.7859380;0.5706333,-1.7402340;0.5706667,-1.7247660;0.5709667,-1.5285940;0.5710000,-1.4955470;0.5713000,-1.1826560;0.5713333,-1.1453910;0.5716333,-0.7889063;0.5716667,-0.7432031;0.5719667,-0.3635156;0.5720000,-0.3290625;0.5723000,-0.1202344;0.5723333,-0.1033594;0.5726333,-0.0210938;0.5727000,-0.0154687;0.5729667,-0.1469531;0.5730000,-0.1792969;0.5733000,-0.5315625;0.5733333,-0.5568750;0.5735333,-0.6398438;0.5736667,-0.5927344;0.5739667,-0.3825000;0.5740000,-0.3466406;0.5743000,0.0302344;0.5743333,0.0745312;0.5746333,0.3396094;0.5747667,0.3768750;0.5749667,0.2531250;0.5750000,0.2151563;0.5753000,-0.0583594;0.5753667,-0.0660938;0.5756333,-0.0098438;0.5756667,0.0063281;0.5759667,0.1926563;0.5760000,0.2214844;0.5763000,0.7312500;0.5763333,0.7614844;0.5766333,0.8775000;0.5767667,0.8486719;0.5769667,0.9225000;0.5771667,0.8817188;0.5773000,0.9506250;0.5773333,0.9808594;0.5776333,1.0575000;0.5778333,1.1165630;0.5779667,1.0722660;0.5780000,1.0167190;0.5783000,-0.5589844;0.5783333,-0.5280469;0.5786333,2.8476560;0.5786667,4.0478910;0.5788333,8.0739840;0.5790000,5.9020310;0.5793000,3.3475780;0.5793333,3.2118750;0.5796000,2.6894530;0.5796667,2.6901560;0.5799667,2.4869530;0.5800000,2.4525000;0.5803000,1.9975780;0.5803333,1.9420310;0.5806333,1.3900780;0.5806667,1.3232810;0.5809667,0.8845313;0.5810000,0.8557031;0.5813000,0.4872656;0.5813333,0.4556250;0.5815333,0.3269531;0.5816667,0.4042969;0.5819667,0.6131250;0.5821000,0.6363281;0.5823000,0.6166406;0.5823333,0.6089063;0.5826333,0.4760156;0.5826667,0.4633594;0.5829667,0.2735156;0.5830000,0.2573438;0.5833000,0.1286719;0.5833333,0.1223438;0.5836000,0.0344531;0.5836667,0.0372656;0.5839667,0.0752344;0.5840000,0.0914062;0.5843000,0.2025000;0.5843333,0.2207813;0.5846333,0.3431250;0.5846667,0.3656250;0.5849667,0.5554688;0.5850000,0.5835938;0.5853000,0.8184375;0.5853333,0.8564063;0.5856333,1.2740630;0.5856667,1.3401560;0.5859667,1.9975780;0.5860000,2.0805470;0.5863000,2.6346090;0.5863667,2.6683590;0.5866333,2.1065630;0.5866667,1.9708590;0.5869667,0.3789844;0.5870000,0.2102344;0.5873000,-0.8866406;0.5873333,-0.9534375;0.5876333,-1.3457810;0.5876667,-1.3675780;0.5879667,-1.5370310;0.5880000,-1.5475780;0.5883000,-1.6889060;0.5883333,-1.6987500;0.5886333,-1.7908590;0.5888667,-1.8028130;0.5889667,-1.7845310;0.5890000,-1.7746880;0.5893000,-1.6650000;0.5893333,-1.6417970;0.5896333,-1.3978130;0.5896667,-1.3563280;0.5899667,-1.0026560;0.5900000,-0.9576563;0.5903000,-0.5814844;0.5903333,-0.5378906;0.5906333,-0.2439844;0.5906667,-0.2179688;0.5909667,-0.0428906;0.5910000,-0.0302344;0.5911333,-0.0112500;0.5913333,-0.0246094;0.5916333,-0.3100781;0.5916667,-0.3487500;0.5919667,-0.6004688;0.5921000,-0.6215625;0.5923000,-0.5751563;0.5923333,-0.5554688;0.5926333,-0.3107813;0.5926667,-0.2700000;0.5929667,0.0492187;0.5930000,0.0822656;0.5932333,0.1856250;0.5933333,0.1687500;0.5936333,-0.1652344;0.5936667,-0.1905469;0.5939000,-0.3030469;0.5940000,-0.2882813;0.5943000,-0.2010938;0.5943333,-0.1800000;0.5946333,0.0871875;0.5946667,0.1596094;0.5949667,0.4239844;0.5951000,0.4753125;0.5952667,0.4120313;0.5953333,0.4260938;0.5955000,0.5139844;0.5956667,0.4971094;0.5959667,0.6271875;0.5960000,0.6321094;0.5963000,0.7509375;0.5963667,0.7600781;0.5966333,-0.1272656;0.5966667,-0.4014844;0.5968000,-0.9639844;0.5970000,-0.1807031;0.5973000,7.6837500;0.5973333,7.7540630;0.5976333,3.8826560;0.5976667,3.6372660;0.5979667,2.3772660;0.5980000,2.3252340;0.5983000,2.1171090;0.5983333,2.0932030;0.5986333,1.7346090;0.5986667,1.6832810;0.5989667,1.1608590;0.5990000,1.1039060;0.5993000,0.5217188;0.5993333,0.4851563;0.5996333,0.1821094;0.5996667,0.1420313;0.5999667,-0.1553906;0.6000000,-0.1596094;0.6003000,-0.0232031;0.6003333,-0.0021094;0.6006333,0.0759375;0.6007000,0.0871875;0.6009667,0.0007031;0.6010000,-0.0105469;0.6013000,-0.1940625;0.6013333,-0.2081250;0.6016333,-0.3494531;0.6016667,-0.3571875;0.6019667,-0.4809375;0.6020000,-0.4886719;0.6022667,-0.5568750;0.6023333,-0.5477344;0.6026333,-0.4429688;0.6026667,-0.4218750;0.6029667,-0.3002344;0.6030000,-0.2812500;0.6033000,-0.1160156;0.6033333,-0.0900000;0.6036333,0.0871875;0.6036667,0.1153125;0.6039667,0.4289063;0.6040000,0.4844531;0.6043000,1.0856250;0.6043333,1.1791410;0.6046333,1.9800000;0.6046667,2.0622660;0.6048667,2.3104690;0.6050000,2.1839060;0.6053000,0.9393750;0.6053333,0.7614844;0.6056333,-0.6953906;0.6056667,-0.8050781;0.6059667,-1.4146880;0.6060000,-1.4484380;0.6063000,-1.7100000;0.6063333,-1.7282810;0.6066333,-1.9181250;0.6066667,-1.9350000;0.6069667,-2.0889840;0.6070000,-2.0974220;0.6072667,-2.1578910;0.6075333,-2.1557810;0.6076333,-2.1360940;0.6076667,-2.1227340;0.6079667,-1.9764840;0.6080000,-1.9497660;0.6083000,-1.7064840;0.6083333,-1.6720310;0.6086333,-1.3521090;0.6086667,-1.3113280;0.6089667,-1.0012500;0.6090000,-0.9646875;0.6093000,-0.7017188;0.6093333,-0.6721875;0.6096333,-0.5259375;0.6097000,-0.5139844;0.6099667,-0.6658594;0.6100000,-0.6946875;0.6103000,-0.9414844;0.6104000,-0.9604688;0.6106333,-0.8767969;0.6106667,-0.8486719;0.6109667,-0.5744531;0.6110000,-0.5378906;0.6113000,-0.3297656;0.6113333,-0.3304688;0.6116333,-0.4914844;0.6116667,-0.5125781;0.6119667,-0.7417969;0.6120000,-0.7692188;0.6123000,-0.9864844;0.6123333,-0.9963281;0.6126000,-1.0560940;0.6126667,-1.0441410;0.6129667,-0.9288281;0.6130000,-0.9056250;0.6133000,-0.4394531;0.6133333,-0.4113281;0.6136333,-0.3058594;0.6136667,-0.3128906;0.6138667,-0.3888281;0.6141333,-0.3325781;0.6143000,-0.2707031;0.6143333,-0.2404688;0.6146333,-0.1096875;0.6146667,-0.0808594;0.6149000,0.0225000;0.6150000,-0.0168750;0.6153000,-1.4702340;0.6154667,-1.4997660;0.6156333,0.6946875;0.6156667,1.8471090;0.6158667,6.7689840;0.6160000,5.0217190;0.6163000,2.1178130;0.6163333,1.9476560;0.6166333,1.1418750;0.6166667,1.1130470;0.6169667,0.8486719;0.6170000,0.8346094;0.6173000,0.7101563;0.6173333,0.7045313;0.6176333,0.4739063;0.6176667,0.4352344;0.6179667,0.0963281;0.6180000,0.0675000;0.6183000,-0.2123438;0.6184333,-0.2362500;0.6186333,-0.1947656;0.6186667,-0.1722656;0.6189667,-0.0386719;0.6191000,-0.0077344;0.6193000,-0.0464063;0.6193333,-0.0513281;0.6196333,-0.1167188;0.6196667,-0.1167188;0.6199667,-0.2074219;0.6200000,-0.2172656;0.6203000,-0.4457813;0.6203333,-0.4675781;0.6206333,-0.7657031;0.6206667,-0.7875000;0.6209333,-0.8908594;0.6210000,-0.8725781;0.6213000,-0.7839844;0.6213333,-0.7657031;0.6216333,-0.6356250;0.6216667,-0.6032813;0.6219667,-0.4380469;0.6220000,-0.4197656;0.6223000,-0.2531250;0.6223333,-0.2179688;0.6226333,0.1856250;0.6226667,0.2496094;0.6229667,0.9070313;0.6230000,0.9998438;0.6233000,1.6882030;0.6234333,1.8000000;0.6236333,1.4062500;0.6236667,1.2895310;0.6239667,-0.2207813;0.6240000,-0.3846094;0.6243000,-1.4695310;0.6243333,-1.5257810;0.6246333,-1.8457030;0.6246667,-1.8660940;0.6249667,-2.0510160;0.6250000,-2.0552340;0.6253000,-2.2071090;0.6253333,-2.2232810;0.6256333,-2.3850000;0.6256667,-2.3899220;0.6259667,-2.4932810;0.6260000,-2.4982030;0.6262333,-2.5340630;0.6263333,-2.5045310;0.6266333,-2.3568750;0.6266667,-2.3350780;0.6269667,-2.1276560;0.6270000,-2.0903910;0.6273000,-1.8618750;0.6273333,-1.8407810;0.6276333,-1.6952340;0.6276667,-1.6706250;0.6279667,-1.5616410;0.6282333,-1.5588280;0.6283000,-1.5489840;0.6283333,-1.5363280;0.6286333,-1.4596880;0.6286667,-1.4421090;0.6289667,-1.2417190;0.6290000,-1.2058590;0.6293000,-0.9576563;0.6293333,-0.9386719;0.6295000,-0.9077344;0.6296667,-0.9281250;0.6299667,-1.0371090;0.6300000,-1.0553910;0.6303000,-1.2860160;0.6303333,-1.3141410;0.6306333,-1.6446090;0.6306667,-1.6635940;0.6309667,-1.8330470;0.6310000,-1.8316410;0.6313000,-1.7557030;0.6313333,-1.7416410;0.6316333,-1.4104690;0.6316667,-1.3563280;0.6319667,-1.2564840;0.6320333,-1.2473440;0.6323000,-1.4716410;0.6323333,-1.4772660;0.6326333,-1.5778130;0.6326667,-1.5771090;0.6328333,-1.5412500;0.6330000,-1.5447660;0.6333000,-1.4090630;0.6333667,-1.3978130;0.6336333,-2.3259380;0.6336667,-2.5319530;0.6339333,-3.2182030;0.6340000,-2.8807030;0.6343000,5.5624220;0.6343333,5.3950780;0.6346333,1.5222660;0.6346667,1.2761720;0.6349667,-0.0021094;0.6350000,-0.0485156;0.6353000,-0.3487500;0.6354000,-0.3684375;0.6356333,-0.3487500;0.6356667,-0.3346875;0.6359000,-0.2503125;0.6360000,-0.2538281;0.6363000,-0.4246875;0.6363333,-0.4317188;0.6366333,-0.4992188;0.6366667,-0.4971094;0.6369667,-0.3564844;0.6370000,-0.3269531;0.6373000,-0.1335938;0.6373333,-0.1125000;0.6376333,0.0189844;0.6376667,0.0288281;0.6379667,0.0745312;0.6380000,0.0815625;0.6381667,0.1082813;0.6384000,0.0942188;0.6386333,0.0253125;0.6386667,0.0161719;0.6389667,-0.1054688;0.6390000,-0.1153125;0.6393000,-0.2770313;0.6393333,-0.2939063;0.6396333,-0.4921875;0.6397000,-0.5104688;0.6399667,-0.4204688;0.6400000,-0.4007813;0.6403000,-0.2404688;0.6403333,-0.2130469;0.6406333,-0.0070313;0.6406667,0.0246094;0.6409667,0.3691406;0.6410000,0.4260938;0.6413000,1.0814060;0.6413333,1.1749220;0.6416333,1.9961720;0.6416667,2.0791410;0.6418667,2.3470310;0.6420000,2.1839060;0.6423000,0.8838281;0.6423333,0.7059375;0.6426333,-0.6124219;0.6426667,-0.7024219;0.6429667,-1.1510160;0.6430000,-1.1671880;0.6433000,-1.3028910;0.6433333,-1.3064060;0.6436333,-1.3668750;0.6436667,-1.3703910;0.6439667,-1.4167970;0.6440333,-1.4153910;0.6442667,-1.4280470;0.6443333,-1.4146880;0.6446333,-1.2972660;0.6446667,-1.2733590;0.6449667,-1.0132030;0.6450000,-0.9745313;0.6453000,-0.7488281;0.6454667,-0.7017188;0.6456333,-0.7502344;0.6456667,-0.7664063;0.6459667,-0.9935156;0.6460000,-1.0139060;0.6463000,-1.1805470;0.6463333,-1.2030470;0.6466333,-1.4280470;0.6466667,-1.4414060;0.6469000,-1.4688280;0.6470000,-1.4470310;0.6473000,-1.2986720;0.6473333,-1.2740630;0.6476333,-1.0350000;0.6476667,-1.0096880;0.6479667,-0.9196875;0.6480000,-0.9182813;0.6483000,-1.0188280;0.6483333,-1.0328910;0.6486333,-1.1622660;0.6486667,-1.1756250;0.6489667,-1.4660160;0.6490000,-1.5018750;0.6493000,-1.7043750;0.6494333,-1.7381250;0.6496333,-1.7085940;0.6496667,-1.6945310;0.6499667,-1.5398440;0.6500000,-1.4857030;0.6503000,-1.2030470;0.6504667,-1.1657810;0.6506333,-1.2782810;0.6506667,-1.3099220;0.6509667,-1.3914840;0.6510667,-1.4111720;0.6513000,-1.3429690;0.6513333,-1.3359380;0.6516333,-1.1917970;0.6516667,-1.1615630;0.6518667,-1.0223440;0.6520000,-1.1868750;0.6523000,-2.1262500;0.6524333,-2.6296880;0.6526333,2.8089840;0.6527667,6.3414840;0.6529667,3.6344530;0.6530000,3.2076560;0.6533000,1.0666410;0.6533333,0.9386719;0.6536333,0.3459375;0.6536667,0.3072656;0.6539333,0.1785938;0.6540000,0.1912500;0.6543000,0.3086719;0.6544333,0.3367969;0.6546333,0.2460938;0.6546667,0.2306250;0.6549667,0.1167188;0.6550000,0.1153125;0.6553000,0.1335938;0.6553333,0.1462500;0.6556333,0.3297656;0.6556667,0.3585938;0.6559667,0.5575781;0.6560000,0.5702344;0.6563000,0.6792188;0.6563333,0.6960938;0.6566333,0.7818750;0.6567000,0.7889063;0.6569667,0.7333594;0.6570000,0.7277344;0.6573000,0.6454688;0.6573333,0.6328125;0.6576333,0.4640625;0.6576667,0.4500000;0.6579667,0.2946094;0.6580000,0.2742188;0.6583000,-0.1342969;0.6583333,-0.1638281;0.6585333,-0.2081250;0.6586667,-0.1821094;0.6589667,-0.0407812;0.6590000,-0.0175781;0.6593000,0.2123438;0.6593333,0.2538281;0.6596333,0.7417969;0.6596667,0.8184375;0.6599667,1.5834380;0.6600000,1.6790630;0.6603000,2.3020310;0.6603667,2.3196090;0.6606333,1.6045310;0.6606667,1.4498440;0.6609667,-0.1040625;0.6610000,-0.2489063;0.6613000,-1.1292190;0.6613333,-1.1840630;0.6616333,-1.4934380;0.6616667,-1.5131250;0.6619667,-1.6678130;0.6620000,-1.6797660;0.6623000,-1.7606250;0.6623333,-1.7669530;0.6626333,-1.8632810;0.6626667,-1.8576560;0.6629667,-1.7613280;0.6630000,-1.7423440;0.6633000,-1.5215630;0.6633333,-1.4934380;0.6636333,-1.2621090;0.6636667,-1.2360940;0.6639667,-1.0307810;0.6641333,-0.9703125;0.6643000,-1.0504690;0.6643333,-1.0736720;0.6646333,-1.3577340;0.6646667,-1.3950000;0.6649667,-1.6818750;0.6650000,-1.7029690;0.6652667,-1.7676560;0.6653333,-1.7571090;0.6656333,-1.6263280;0.6656667,-1.6038280;0.6659667,-1.3542190;0.6660000,-1.3246880;0.6663000,-1.1186720;0.6663333,-1.1003910;0.6665000,-1.0364060;0.6666667,-1.0673440;0.6669667,-1.2079690;0.6670000,-1.2248440;0.6673000,-1.4364840;0.6673333,-1.4786720;0.6676333,-1.7845310;0.6676667,-1.8091410;0.6679667,-1.9378130;0.6680000,-1.9378130;0.6683000,-1.8667970;0.6683333,-1.8520310;0.6686333,-1.4948440;0.6686667,-1.4828910;0.6689000,-1.4322660;0.6690000,-1.4653130;0.6693000,-1.6284380;0.6693333,-1.6263280;0.6695333,-1.6474220;0.6696667,-1.6200000;0.6699667,-1.5574220;0.6700000,-1.5405470;0.6702333,-1.4231250;0.6703333,-1.4392970;0.6706333,-2.5720310;0.6708667,-3.2048440;0.6709667,-2.3132810;0.6710000,-1.3725000;0.6712333,5.6348440;0.6713333,4.3052340;0.6716333,0.9365625;0.6716667,0.7467188;0.6719667,-0.1406250;0.6720000,-0.1757813;0.6723000,-0.3557813;0.6723333,-0.3487500;0.6726333,-0.2235938;0.6726667,-0.2010938;0.6728667,-0.1005469;0.6730000,-0.1265625;0.6733000,-0.2671875;0.6733333,-0.2819531;0.6736333,-0.3719531;0.6736667,-0.3691406;0.6739667,-0.2158594;0.6740000,-0.1863281;0.6743000,0.1075781;0.6743333,0.1427344;0.6746333,0.3614063;0.6746667,0.3747656;0.6749667,0.4809375;0.6750000,0.5013281;0.6753000,0.6426563;0.6753333,0.6567188;0.6754667,0.6876563;0.6756667,0.6588281;0.6759667,0.5667188;0.6760000,0.5512500;0.6763000,0.2714063;0.6763333,0.2643750;0.6766333,0.3803906;0.6766667,0.3979688;0.6769667,0.5519531;0.6770000,0.5758594;0.6773000,0.7551563;0.6773333,0.7755469;0.6776333,1.0251560;0.6776667,1.0645310;0.6779667,1.5067970;0.6780000,1.5714840;0.6783000,2.3118750;0.6783333,2.4089060;0.6786333,3.2547660;0.6788333,3.5219530;0.6789667,3.2850000;0.6790000,3.1605470;0.6793000,1.5257810;0.6793333,1.3394530;0.6796333,0.1673438;0.6796667,0.0984375;0.6799667,-0.2425781;0.6800000,-0.2636719;0.6802667,-0.3128906;0.6803333,-0.3072656;0.6805000,-0.2840625;0.6806667,-0.3121875;0.6809667,-0.3754688;0.6811000,-0.3775781;0.6813000,-0.4057031;0.6813333,-0.4127344;0.6815667,-0.4380469;0.6816667,-0.4211719;0.6819667,-0.3297656;0.6820000,-0.3192188;0.6823000,-0.1729688;0.6823333,-0.1532813;0.6826000,-0.0492187;0.6826667,-0.0492187;0.6829667,-0.1272656;0.6830000,-0.1427344;0.6833000,-0.2798438;0.6833667,-0.2875781;0.6836333,-0.1996875;0.6836667,-0.1785938;0.6839667,0.0991406;0.6840000,0.1378125;0.6843000,0.4823438;0.6843333,0.5175000;0.6846333,0.8142188;0.6846667,0.8444531;0.6849667,1.1060160;0.6850000,1.1292190;0.6853000,1.2592970;0.6853333,1.2649220;0.6855333,1.3064060;0.6856667,1.2916410;0.6859667,1.0919530;0.6860000,1.0624220;0.6863000,0.9478125;0.6863667,0.9358594;0.6866333,1.0054690;0.6866667,1.0272660;0.6869667,1.2564840;0.6870000,1.3169530;0.6873000,1.6903130;0.6874667,1.7648440;0.6876333,1.6607810;0.6878667,1.6537500;0.6879667,1.6171880;0.6880667,1.5960940;0.6882667,1.6650000;0.6883667,1.6523440;0.6886333,1.6931250;0.6887667,1.7163280;0.6889667,1.4006250;0.6890000,1.2107810;0.6891667,0.3164063;0.6893333,0.4162500;0.6896333,7.1050780;0.6897333,8.5387500;0.6899667,5.6770310;0.6900000,5.3528910;0.6903000,3.7272660;0.6903333,3.6203910;0.6906333,3.2378910;0.6906667,3.1985160;0.6909667,2.8807030;0.6910000,2.8364060;0.6913000,2.4539060;0.6913333,2.4117190;0.6916333,2.0411720;0.6916667,2.0067190;0.6919667,1.7859380;0.6920000,1.7528910;0.6923000,1.5271880;0.6923667,1.5082030;0.6926333,1.6579690;0.6926667,1.6783590;0.6928667,1.7578130;0.6930000,1.7325000;0.6933000,1.6614840;0.6933333,1.6523440;0.6936333,1.5757030;0.6936667,1.5637500;0.6939667,1.4322660;0.6940000,1.4160940;0.6943000,1.3120310;0.6943333,1.3021880;0.6946333,1.2923440;0.6946667,1.2937500;0.6949667,1.3408590;0.6950000,1.3478910;0.6953000,1.4175000;0.6953333,1.4273440;0.6956333,1.4751560;0.6956667,1.4786720;0.6959667,1.5229690;0.6960000,1.5356250;0.6963000,1.7275780;0.6963333,1.7557030;0.6966333,2.2000780;0.6966667,2.2626560;0.6969667,2.8729690;0.6970000,2.9355470;0.6972667,3.2751560;0.6973333,3.2371880;0.6976333,2.1853130;0.6976667,1.9947660;0.6979667,0.2496094;0.6980000,0.0822656;0.6983000,-0.8915625;0.6983333,-0.9562500;0.6986333,-1.3148440;0.6986667,-1.3415630;0.6989667,-1.5349220;0.6990000,-1.5609380;0.6993000,-1.7655470;0.6993333,-1.7852340;0.6996333,-1.8773440;0.6996667,-1.8815630;0.6999667,-1.8253130;0.7000000,-1.8147660;0.7003000,-1.6586720;0.7003333,-1.6368750;0.7006333,-1.3774220;0.7006667,-1.3478910;0.7009667,-1.0061720;0.7010000,-0.9675000;0.7013000,-0.5617969;0.7013333,-0.5210156;0.7016333,-0.2320313;0.7016667,-0.2186719;0.7019667,-0.1209375;0.7021667,-0.0963281;0.7023000,-0.1364063;0.7023333,-0.1567969;0.7026333,-0.3895313;0.7026667,-0.4127344;0.7029667,-0.4816406;0.7030000,-0.4809375;0.7033000,-0.3206250;0.7033333,-0.2939063;0.7036333,0.0653906;0.7036667,0.1012500;0.7039667,0.4085156;0.7040000,0.4387500;0.7042667,0.5948438;0.7043333,0.5807813;0.7046333,0.3705469;0.7046667,0.3501563;0.7049000,0.2960156;0.7050000,0.3030469;0.7053000,0.4696875;0.7053333,0.4858594;0.7056333,0.8957813;0.7056667,0.9618750;0.7059667,1.2227340;0.7060667,1.2557810;0.7063000,1.1798440;0.7064333,1.2283590;0.7066000,1.1826560;0.7066667,1.1995310;0.7068667,1.3443750;0.7070000,1.3394530;0.7072667,1.4407030;0.7073333,1.4336720;0.7076333,0.1828125;0.7077333,-0.1371094;0.7079667,0.9590625;0.7080000,1.4962500;0.7082667,8.3974220;0.7083333,7.8482810;0.7086333,4.1322660;0.7086667,3.9332810;0.7089667,2.9292190;0.7090000,2.8968750;0.7093000,2.7998440;0.7093333,2.7815630;0.7096333,2.4904690;0.7096667,2.4363280;0.7099667,1.8928130;0.7100000,1.8217970;0.7103000,1.3928910;0.7103333,1.3668750;0.7106333,1.0891410;0.7106667,1.0462500;0.7109333,0.8817188;0.7110000,0.8915625;0.7113000,1.1151560;0.7113333,1.1285160;0.7115333,1.1833590;0.7116667,1.1622660;0.7119667,1.0560940;0.7120000,1.0385160;0.7123000,0.9140625;0.7123333,0.8950781;0.7126333,0.8282813;0.7126667,0.8226563;0.7129667,0.7860938;0.7131667,0.8043750;0.7133000,0.7769531;0.7133667,0.7706250;0.7136333,0.8092969;0.7136667,0.8149219;0.7139667,0.9000000;0.7140000,0.9105469;0.7143000,1.0645310;0.7143333,1.0821090;0.7146333,1.2958590;0.7146667,1.3197660;0.7149667,1.6403910;0.7150000,1.6867970;0.7153000,2.2942970;0.7153333,2.3716410;0.7156333,3.0304690;0.7158000,3.1823440;0.7159667,2.9460940;0.7160000,2.8434380;0.7163000,1.3528130;0.7163333,1.1524220;0.7166333,-0.3916406;0.7166667,-0.5175000;0.7169667,-1.1826560;0.7170000,-1.2262500;0.7173000,-1.4969530;0.7173333,-1.5229690;0.7176333,-1.7015630;0.7176667,-1.7219530;0.7179667,-1.8717190;0.7180000,-1.8871880;0.7181333,-1.9153130;0.7183333,-1.8907030;0.7186333,-1.7669530;0.7186667,-1.7479690;0.7189667,-1.4927340;0.7190000,-1.4646090;0.7193000,-1.1524220;0.7193333,-1.1158590;0.7196333,-0.7038281;0.7196667,-0.6567188;0.7199667,-0.2453906;0.7200000,-0.2151563;0.7203000,-0.0056250;0.7203333,0.0091406;0.7206000,0.1040625;0.7206667,0.0956250;0.7209667,-0.0998437;0.7210000,-0.1462500;0.7213000,-0.5385938;0.7213333,-0.5744531;0.7216000,-0.6693750;0.7216667,-0.6651563;0.7219667,-0.4605469;0.7220000,-0.4303125;0.7223000,-0.0428906;0.7223333,-0.0056250;0.7226333,0.2974219;0.7228333,0.3796875;0.7229667,0.3100781;0.7230000,0.2777344;0.7233000,-0.0281250;0.7233333,-0.0513281;0.7234333,-0.0794531;0.7236667,-0.0478125;0.7239667,0.1195313;0.7240000,0.1371094;0.7243000,0.6785156;0.7243333,0.7136719;0.7246333,0.8550000;0.7248000,0.8114063;0.7249667,0.8662500;0.7251333,0.8746875;0.7253000,0.9337500;0.7253333,0.9583594;0.7256333,1.0350000;0.7256667,1.0448440;0.7258667,1.1250000;0.7260000,1.0539840;0.7263000,-0.4985156;0.7263333,-0.5034375;0.7266333,2.2999220;0.7266667,3.3525000;0.7268667,8.0100000;0.7270000,6.1846880;0.7273000,3.4108590;0.7273333,3.2554690;0.7276333,2.6268750;0.7276667,2.6121090;0.7279667,2.3835940;0.7280000,2.3449220;0.7283000,1.9518750;0.7283333,1.8942190;0.7286333,1.3584380;0.7286667,1.2909380;0.7289667,0.9147656;0.7290000,0.8838281;0.7293000,0.5737500;0.7294667,0.5020313;0.7296333,0.5667188;0.7296667,0.5906250;0.7299667,0.8156250;0.7300000,0.8282813;0.7302333,0.8936719;0.7303333,0.8817188;0.7306333,0.8022656;0.7306667,0.7860938;0.7309667,0.6546094;0.7310000,0.6398438;0.7313000,0.5653125;0.7313333,0.5589844;0.7316333,0.5252344;0.7316667,0.5224219;0.7319667,0.6110156;0.7320000,0.6271875;0.7323000,0.7657031;0.7323333,0.7741406;0.7326333,0.8943750;0.7326667,0.9098438;0.7329667,1.0800000;0.7330000,1.0975780;0.7333000,1.3310160;0.7333333,1.3626560;0.7336333,1.7817190;0.7336667,1.8365630;0.7339667,2.4665630;0.7340000,2.5446090;0.7343000,3.1148440;0.7343667,3.1492970;0.7346333,2.6753910;0.7346667,2.5361720;0.7349667,0.7544531;0.7350000,0.5463281;0.7353000,-0.7621875;0.7353333,-0.8486719;0.7356333,-1.3289060;0.7356667,-1.3661720;0.7359667,-1.5918750;0.7360000,-1.6157810;0.7363000,-1.8161720;0.7363333,-1.8400780;0.7366333,-1.9560940;0.7367000,-1.9624220;0.7369667,-1.9357030;0.7370000,-1.9335940;0.7373000,-1.7796090;0.7373333,-1.7571090;0.7376333,-1.4948440;0.7376667,-1.4653130;0.7379667,-1.0933590;0.7380000,-1.0532810;0.7383000,-0.6145313;0.7383333,-0.5716406;0.7386333,-0.2088281;0.7386667,-0.1800000;0.7389667,0.0590625;0.7390000,0.0689063;0.7392000,0.1385156;0.7393333,0.1068750;0.7396333,-0.1497656;0.7396667,-0.1982813;0.7399667,-0.4851563;0.7400667,-0.5160938;0.7403000,-0.4907813;0.7403333,-0.4830469;0.7406333,-0.2453906;0.7406667,-0.2102344;0.7409667,0.1532813;0.7410000,0.1842188;0.7413000,0.4197656;0.7414000,0.4436719;0.7416333,0.2594531;0.7416667,0.2130469;0.7419667,0.0421875;0.7420000,0.0372656;0.7423000,0.1286719;0.7423333,0.1413281;0.7426333,0.3712500;0.7426667,0.4275000;0.7429667,0.8739844;0.7430000,0.8824219;0.7431667,0.9689063;0.7433333,0.9098438;0.7435667,1.0230470;0.7437000,0.9766406;0.7439667,1.1341410;0.7440000,1.1411720;0.7443000,1.2480470;0.7444333,1.2705470;0.7446333,0.9274219;0.7446667,0.7207031;0.7448667,-0.3775781;0.7450000,-0.0885937;0.7453000,6.6023440;0.7454000,8.1843750;0.7456333,5.1046880;0.7456667,4.7489060;0.7459667,3.0740630;0.7460000,2.9749220;0.7463000,2.7098440;0.7463333,2.6824220;0.7466333,2.4187500;0.7466667,2.3751560;0.7469667,1.9539840;0.7470000,1.8949220;0.7473000,1.3183590;0.7473333,1.2564840;0.7476333,0.9225000;0.7476667,0.8760938;0.7479667,0.5322656;0.7480333,0.5041406;0.7483000,0.6391406;0.7483333,0.6588281;0.7486333,0.8332031;0.7486667,0.8423438;0.7489000,0.8985938;0.7490000,0.8845313;0.7493000,0.7741406;0.7493333,0.7558594;0.7496333,0.6173438;0.7496667,0.6004688;0.7499667,0.4626563;0.7500000,0.4507031;0.7502000,0.4176563;0.7503333,0.4296094;0.7506333,0.5625000;0.7506667,0.5779688;0.7509667,0.7094531;0.7510000,0.7192969;0.7513000,0.8303906;0.7513333,0.8430469;0.7516333,0.8971875;0.7516667,0.9112500;0.7519667,1.1910940;0.7520000,1.2360940;0.7523000,1.7479690;0.7523333,1.8147660;0.7526333,2.5171880;0.7526667,2.5938280;0.7529333,2.9889840;0.7530000,2.9650780;0.7533000,2.0756250;0.7533333,1.9110940;0.7536333,0.3564844;0.7536667,0.2081250;0.7539667,-0.6665625;0.7540000,-0.7221094;0.7543000,-1.0427340;0.7543333,-1.0708590;0.7546333,-1.2297660;0.7546667,-1.2459380;0.7549667,-1.3542190;0.7550000,-1.3668750;0.7552333,-1.4090630;0.7553333,-1.4055470;0.7556333,-1.3225780;0.7556667,-1.3071090;0.7559667,-1.1081250;0.7560000,-1.0856250;0.7563000,-0.7783594;0.7563333,-0.7446094;0.7566333,-0.3135938;0.7566667,-0.2650781;0.7569667,0.1638281;0.7570000,0.1996875;0.7573000,0.4886719;0.7573333,0.5090625;0.7576333,0.6855469;0.7576667,0.6911719;0.7578333,0.7291406;0.7580000,0.6742969;0.7583000,0.3670313;0.7583333,0.3234375;0.7586333,0.1047656;0.7587000,0.0914062;0.7589667,0.1764844;0.7590000,0.1940625;0.7593000,0.5076563;0.7593333,0.5519531;0.7596333,0.9302344;0.7596667,0.9576563;0.7599000,1.0778910;0.7600000,1.0378130;0.7603000,0.6946875;0.7603333,0.6672656;0.7605333,0.6039844;0.7606667,0.6110156;0.7609667,0.7607813;0.7610000,0.7755469;0.7613000,1.1692970;0.7613333,1.2297660;0.7616333,1.4076560;0.7617333,1.4280470;0.7619000,1.3872660;0.7620000,1.4111720;0.7621333,1.4730470;0.7623333,1.4392970;0.7625333,1.5468750;0.7626667,1.5433590;0.7629333,1.6502340;0.7630000,1.6361720;0.7633000,0.2946094;0.7634000,-0.1181250;0.7636333,0.8978906;0.7636667,1.3985160;0.7639333,8.5183590;0.7640000,8.0325000;0.7643000,4.2700780;0.7643333,4.0598440;0.7646333,3.0262500;0.7646667,2.9953130;0.7649667,2.8272660;0.7650000,2.7977340;0.7653000,2.4539060;0.7653333,2.4124220;0.7656333,1.9617190;0.7656667,1.8914060;0.7659667,1.3050000;0.7660000,1.2571880;0.7663000,0.8838281;0.7663333,0.8325000;0.7666333,0.6236719;0.7666667,0.6278906;0.7669667,0.8008594;0.7670000,0.8085938;0.7673000,0.8817188;0.7673333,0.8817188;0.7676333,0.8317969;0.7676667,0.8114063;0.7679667,0.6609375;0.7680000,0.6419531;0.7683000,0.5055469;0.7683333,0.4872656;0.7686333,0.3691406;0.7686667,0.3543750;0.7688000,0.3199219;0.7690000,0.3445313;0.7693000,0.4675781;0.7693333,0.4781250;0.7696333,0.6300000;0.7696667,0.6482813;0.7699667,0.8683594;0.7700000,0.8887500;0.7703000,1.1137500;0.7703333,1.1404690;0.7706333,1.4871090;0.7706667,1.5391410;0.7709667,2.1719530;0.7710000,2.2457810;0.7713000,2.9081250;0.7714667,3.0747660;0.7716333,2.8821090;0.7716667,2.7885940;0.7719667,1.4048440;0.7720000,1.2164060;0.7723000,-0.1905469;0.7723333,-0.3037500;0.7726333,-0.8992969;0.7726667,-0.9442969;0.7729667,-1.2494530;0.7730000,-1.2810940;0.7733000,-1.5025780;0.7733333,-1.5307030;0.7736333,-1.7303910;0.7736667,-1.7542970;0.7739667,-1.8464060;0.7741000,-1.8717190;0.7743000,-1.8407810;0.7743333,-1.8344530;0.7746333,-1.6558590;0.7746667,-1.6347660;0.7749667,-1.3443750;0.7750000,-1.3120310;0.7753000,-0.9323438;0.7753333,-0.8957813;0.7756333,-0.4928906;0.7756667,-0.4535156;0.7759667,-0.1272656;0.7760000,-0.1068750;0.7762667,0.0084375;0.7763333,0.0035156;0.7766333,-0.1068750;0.7766667,-0.1357031;0.7769667,-0.3297656;0.7770667,-0.3663281;0.7773000,-0.2685938;0.7773333,-0.2510156;0.7776333,0.0527344;0.7776667,0.0864844;0.7779333,0.3128906;0.7780000,0.3058594;0.7783000,0.1511719;0.7783333,0.1223438;0.7786333,-0.1181250;0.7786667,-0.1567969;0.7789667,-0.3698438;0.7790000,-0.3930469;0.7793000,-0.4809375;0.7793333,-0.4816406;0.7796333,-0.3881250;0.7796667,-0.3635156;0.7799667,0.0815625;0.7800000,0.0885937;0.7802667,0.2017969;0.7804333,0.1237500;0.7806333,0.1877344;0.7807667,0.1666406;0.7809667,0.2510156;0.7810000,0.2650781;0.7813000,0.3389063;0.7813333,0.3515625;0.7815333,0.4429688;0.7816667,0.3086719;0.7819667,-1.1271090;0.7820667,-1.1313280;0.7823000,2.3709380;0.7823333,3.6541410;0.7825000,7.0867970;0.7826667,4.7264060;0.7829667,2.1874220;0.7830000,2.0228910;0.7833000,1.3450780;0.7833333,1.3078130;0.7836333,1.0350000;0.7836667,1.0117970;0.7839667,0.9056250;0.7840000,0.8929688;0.7843000,0.6349219;0.7843333,0.5793750;0.7846333,0.1666406;0.7846667,0.1251563;0.7849667,-0.1448438;0.7850667,-0.1800000;0.7853000,-0.0534375;0.7853333,-0.0323437;0.7856333,0.1743750;0.7856667,0.1856250;0.7859333,0.2404688;0.7860667,0.2271094;0.7863000,0.2559375;0.7863333,0.2538281;0.7866333,0.1856250;0.7866667,0.1659375;0.7869667,-0.0063281;0.7870000,-0.0330469;0.7873000,-0.2664844;0.7873333,-0.2889844;0.7875000,-0.3494531;0.7877333,-0.3353906;0.7879667,-0.2559375;0.7880000,-0.2482031;0.7883000,-0.1096875;0.7883333,-0.0956250;0.7886333,0.0682031;0.7886667,0.0794531;0.7889667,0.2692969;0.7890000,0.2960156;0.7893000,0.6757031;0.7893333,0.7298438;0.7896333,1.3992190;0.7896667,1.4814840;0.7899667,2.1185160;0.7900333,2.1571880;0.7903000,1.6762500;0.7903333,1.5370310;0.7906333,0.0154687;0.7906667,-0.1476563;0.7909667,-1.1404690;0.7910000,-1.2037500;0.7913000,-1.5173440;0.7913333,-1.5433590;0.7916333,-1.6818750;0.7916667,-1.7001560;0.7919667,-1.8885940;0.7920000,-1.9153130;0.7923000,-2.0383590;0.7923333,-2.0467970;0.7926333,-2.1213280;0.7927667,-2.1607030;0.7929667,-2.1262500;0.7930000,-2.1213280;0.7933000,-2.0046090;0.7933333,-1.9947660;0.7936333,-1.7578130;0.7936667,-1.7303910;0.7939667,-1.4589840;0.7940000,-1.4414060;0.7943000,-1.2578910;0.7943333,-1.2466410;0.7946000,-1.1608590;0.7947333,-1.1798440;0.7949000,-1.1622660;0.7950000,-1.1756250;0.7953000,-1.2515630;0.7953667,-1.2642190;0.7956333,-1.1165630;0.7956667,-1.0961720;0.7959667,-0.8971875;0.7960000,-0.8880469;0.7962667,-0.7973438;0.7963333,-0.8064844;0.7966333,-0.9428906;0.7966667,-0.9660938;0.7969667,-1.1482030;0.7970000,-1.1777340;0.7973000,-1.5138280;0.7973333,-1.5475780;0.7976333,-1.7282810;0.7977667,-1.7662500;0.7979667,-1.6889060;0.7980000,-1.6776560;0.7983000,-1.4175000;0.7983333,-1.3598440;0.7986333,-1.1151560;0.7987333,-1.1025000;0.7989667,-1.2832030;0.7990000,-1.3176560;0.7993000,-1.4435160;0.7994000,-1.4758590;0.7995667,-1.4245310;0.7997000,-1.4400000;0.7999667,-1.2993750;0.8001000,-1.2839060;0.8003000,-1.7233590;0.8003333,-1.9427340;0.8006333,-2.9446880;0.8006667,-3.0515630;0.8009667,4.8389060;0.8010333,5.7157030;0.8013000,2.3603910;0.8013333,2.0482030;0.8016333,0.4092188;0.8016667,0.3241406;0.8019667,-0.0344531;0.8020000,-0.0632812;0.8021333,-0.1237500;0.8023333,-0.1061719;0.8026333,0.0217969;0.8026667,0.0288281;0.8029667,-0.0998437;0.8030000,-0.1202344;0.8033000,-0.1814063;0.8034333,-0.2123438;0.8036333,-0.1335938;0.8036667,-0.1146094;0.8039667,0.1532813;0.8040000,0.1785938;0.8043000,0.3585938;0.8044333,0.3480469;0.8046333,0.3684375;0.8046667,0.3719531;0.8049667,0.4373438;0.8050000,0.4359375;0.8053000,0.4085156;0.8053333,0.3951563;0.8056333,0.2791406;0.8056667,0.2636719;0.8059667,0.1364063;0.8060000,0.1174219;0.8063000,-0.0625781;0.8063333,-0.0871875;0.8066000,-0.2257031;0.8066667,-0.2165625;0.8069667,-0.0998437;0.8070000,-0.0871875;0.8073000,0.0829687;0.8073333,0.1061719;0.8076333,0.4085156;0.8076667,0.4521094;0.8079667,1.0328910;0.8080000,1.1116410;0.8083000,1.9385160;0.8083333,2.0264060;0.8086333,2.5129690;0.8086667,2.4960940;0.8089667,1.5384380;0.8090000,1.3682810;0.8093000,-0.0928125;0.8093333,-0.2193750;0.8096333,-0.8739844;0.8096667,-0.9126563;0.8099667,-1.0722660;0.8100000,-1.0792970;0.8101667,-1.1144530;0.8103333,-1.1186720;0.8106333,-1.1608590;0.8107667,-1.1777340;0.8109667,-1.1453910;0.8110000,-1.1404690;0.8113000,-1.0272660;0.8113333,-1.0103910;0.8116333,-0.7572656;0.8116667,-0.7291406;0.8119667,-0.5097656;0.8120000,-0.4865625;0.8123000,-0.3058594;0.8123667,-0.2960156;0.8126333,-0.3691406;0.8126667,-0.3923438;0.8129667,-0.5547656;0.8130000,-0.5723438;0.8133000,-0.7818750;0.8133333,-0.8085938;0.8136333,-0.9239063;0.8136667,-0.9217969;0.8139667,-0.7825781;0.8140000,-0.7600781;0.8143000,-0.5083594;0.8143333,-0.4837500;0.8146333,-0.3220313;0.8146667,-0.3185156;0.8149667,-0.3839063;0.8150000,-0.4021875;0.8153000,-0.5596875;0.8153333,-0.5821875;0.8156333,-0.8676563;0.8156667,-0.9168750;0.8159667,-1.1819530;0.8160000,-1.2058590;0.8161667,-1.2775780;0.8163333,-1.2564840;0.8166333,-1.1221880;0.8166667,-1.0792970;0.8169667,-0.7509375;0.8172000,-0.7214063;0.8173000,-0.7938281;0.8173333,-0.8339063;0.8176333,-0.9766406;0.8178000,-1.0385160;0.8179667,-0.9724219;0.8181000,-0.9682031;0.8183000,-0.8824219;0.8183333,-0.8669531;0.8185667,-0.7917188;0.8186667,-0.8985938;0.8189333,-2.0003910;0.8191333,-2.5931250;0.8193000,1.2150000;0.8193333,2.6760940;0.8194667,6.2964840;0.8196667,3.7089840;0.8199667,1.3162500;0.8200000,1.1714060;0.8203000,0.5695313;0.8203333,0.5329688;0.8206333,0.3846094;0.8206667,0.3853125;0.8209667,0.4760156;0.8210667,0.4935938;0.8213000,0.4134375;0.8213333,0.3874219;0.8216333,0.2257031;0.8216667,0.2116406;0.8218333,0.1652344;0.8220000,0.1701563;0.8223000,0.3550781;0.8223333,0.3810938;0.8226333,0.5906250;0.8226667,0.6053906;0.8229667,0.7073438;0.8230000,0.7192969;0.8233000,0.8676563;0.8233333,0.8824219;0.8236333,0.9330469;0.8236667,0.9344531;0.8239667,0.9105469;0.8240000,0.9028125;0.8243000,0.8240625;0.8243333,0.8170313;0.8246333,0.7446094;0.8246667,0.7291406;0.8249667,0.5090625;0.8250000,0.4753125;0.8253000,0.0836719;0.8254333,0.0660938;0.8256333,0.1314844;0.8256667,0.1441406;0.8259667,0.3199219;0.8260000,0.3515625;0.8263000,0.7741406;0.8263333,0.8381250;0.8266333,1.5932810;0.8266667,1.6910160;0.8269667,2.4046880;0.8270333,2.4510940;0.8273000,1.9680470;0.8273333,1.8253130;0.8276333,0.2383594;0.8276667,0.0717187;0.8279667,-0.9604688;0.8280000,-1.0307810;0.8283000,-1.5201560;0.8283333,-1.5855470;0.8286333,-2.1691410;0.8286667,-2.2246880;0.8289667,-2.6268750;0.8290000,-2.6599220;0.8293000,-2.8659380;0.8293333,-2.8870310;0.8295000,-2.9608590;0.8297000,-2.9587500;0.8299667,-2.8778910;0.8300000,-2.8603130;0.8303000,-2.6796090;0.8303333,-2.6571090;0.8306333,-2.4370310;0.8306667,-2.4222660;0.8309333,-2.3667190;0.8310000,-2.3765630;0.8313000,-2.5101560;0.8313333,-2.5347660;0.8316333,-2.7323440;0.8318000,-2.7724220;0.8319667,-2.7189840;0.8320000,-2.7035160;0.8323000,-2.4567190;0.8323333,-2.4201560;0.8326333,-1.9898440;0.8326667,-1.9399220;0.8329667,-1.5721880;0.8330000,-1.5419530;0.8333000,-1.3619530;0.8333333,-1.3591410;0.8336333,-1.4505470;0.8336667,-1.4639060;0.8339667,-1.5778130;0.8340000,-1.6010160;0.8343000,-1.8302340;0.8343333,-1.8400780;0.8345667,-1.8864840;0.8346667,-1.8815630;0.8349667,-1.6790630;0.8350000,-1.6579690;0.8353000,-1.1770310;0.8353333,-1.1221880;0.8356333,-0.9091406;0.8357000,-0.8859375;0.8359333,-0.9710156;0.8360000,-0.9569531;0.8363000,-0.9063281;0.8363333,-0.8922656;0.8366333,-0.7389844;0.8366667,-0.7200000;0.8369667,-0.5020313;0.8370333,-0.4788281;0.8373000,-1.3303130;0.8373333,-1.4976560;0.8376000,-1.8260160;0.8376667,-1.2480470;0.8379667,6.8146880;0.8380000,6.5566410;0.8383000,2.9467970;0.8383333,2.7309380;0.8386333,1.5630470;0.8386667,1.5089060;0.8389667,1.0905470;0.8390000,1.0546880;0.8393000,0.8767969;0.8393333,0.8669531;0.8396333,0.7523438;0.8396667,0.7214063;0.8399667,0.4310156;0.8400000,0.4127344;0.8403000,0.1455469;0.8403333,0.1202344;0.8405000,0.0274219;0.8406667,0.0731250;0.8409667,0.2819531;0.8410000,0.3023438;0.8412667,0.3803906;0.8413333,0.3782813;0.8416333,0.3269531;0.8416667,0.3234375;0.8418333,0.3044531;0.8420000,0.3058594;0.8423000,0.2777344;0.8423333,0.2629688;0.8426333,0.1912500;0.8426667,0.1884375;0.8428000,0.1589063;0.8430000,0.1884375;0.8433000,0.2735156;0.8433333,0.2833594;0.8436333,0.3796875;0.8436667,0.3944531;0.8439667,0.5027344;0.8440000,0.5160938;0.8443000,0.6728906;0.8443333,0.6989063;0.8446333,1.0364060;0.8446667,1.0905470;0.8449667,1.7142190;0.8450000,1.7992970;0.8453000,2.5952340;0.8453333,2.6732810;0.8455333,2.9221880;0.8456667,2.8033590;0.8459667,1.5883590;0.8460000,1.4097660;0.8463000,-0.0210938;0.8463333,-0.1342969;0.8466333,-0.8550000;0.8466667,-0.9133594;0.8469667,-1.2403130;0.8470000,-1.2536720;0.8471667,-1.2958590;0.8473333,-1.2993750;0.8475000,-1.3345310;0.8476667,-1.3275000;0.8479667,-1.2747660;0.8480000,-1.2656250;0.8483000,-1.1875780;0.8483333,-1.1742190;0.8486333,-1.0455470;0.8486667,-1.0307810;0.8489667,-0.8655469;0.8490000,-0.8451563;0.8493000,-0.7136719;0.8493333,-0.7052344;0.8496000,-0.6911719;0.8496667,-0.6946875;0.8499667,-0.7917188;0.8500000,-0.7959375;0.8501333,-0.8114063;0.8503333,-0.7959375;0.8505000,-0.8149219;0.8508000,-0.8212500;0.8509667,-0.7846875;0.8510000,-0.7727344;0.8513000,-0.5364844;0.8513333,-0.5083594;0.8516333,-0.2172656;0.8516667,-0.1778906;0.8519667,0.1237500;0.8520000,0.1483594;0.8523000,0.2777344;0.8524000,0.2917969;0.8526333,0.1835156;0.8526667,0.1490625;0.8529667,-0.0836719;0.8531333,-0.1314844;0.8533000,-0.0857813;0.8533333,-0.0696094;0.8536333,0.0717187;0.8536667,0.1110938;0.8539667,0.5709375;0.8540000,0.5857031;0.8542333,0.6665625;0.8543333,0.6215625;0.8544667,0.5709375;0.8548000,0.5491406;0.8549667,0.6419531;0.8551333,0.6546094;0.8553000,0.7143750;0.8554333,0.7495313;0.8556333,0.6405469;0.8556667,0.5350781;0.8559000,-0.7664063;0.8560000,-0.6532031;0.8563000,4.1013280;0.8564667,7.4545310;0.8566333,5.2347660;0.8566667,4.7953130;0.8569667,2.7900000;0.8570000,2.6732810;0.8573000,2.2795310;0.8573333,2.2668750;0.8576333,2.0728130;0.8576667,2.0418750;0.8579667,1.6284380;0.8580000,1.5707810;0.8583000,1.0132030;0.8583333,0.9696094;0.8586333,0.7228125;0.8586667,0.6925781;0.8589667,0.3923438;0.8591333,0.3375000;0.8593000,0.4457813;0.8593333,0.4739063;0.8596333,0.6166406;0.8597000,0.6229688;0.8599667,0.5885156;0.8600000,0.5850000;0.8603000,0.4942969;0.8603333,0.4816406;0.8606333,0.3860156;0.8606667,0.3768750;0.8609667,0.3199219;0.8610000,0.3135938;0.8612000,0.2657813;0.8613333,0.2784375;0.8616333,0.3325781;0.8617000,0.3417188;0.8619667,0.2552344;0.8620000,0.2559375;0.8623000,0.3536719;0.8623333,0.3733594;0.8626333,0.5125781;0.8626667,0.5329688;0.8629667,0.7614844;0.8630000,0.7959375;0.8633000,1.2093750;0.8633333,1.2754690;0.8636333,1.9441410;0.8636667,2.0250000;0.8639667,2.5685160;0.8640333,2.5875000;0.8643000,1.9764840;0.8643333,1.8253130;0.8646333,0.1659375;0.8646667,-0.0126563;0.8649667,-1.2248440;0.8650000,-1.3078130;0.8653000,-1.7936720;0.8653333,-1.8253130;0.8656333,-2.0742190;0.8656667,-2.0981250;0.8659667,-2.2978130;0.8660000,-2.3146880;0.8663000,-2.4391410;0.8663333,-2.4440630;0.8665000,-2.4778130;0.8666667,-2.4475780;0.8669667,-2.3160940;0.8670000,-2.2971090;0.8673000,-2.0896880;0.8673333,-2.0573440;0.8676333,-1.7472660;0.8676667,-1.7050780;0.8679667,-1.3626560;0.8680000,-1.3246880;0.8683000,-1.0364060;0.8683333,-1.0096880;0.8686333,-0.8718750;0.8686667,-0.8606250;0.8689333,-0.8310938;0.8690000,-0.8430469;0.8693000,-1.0687500;0.8693333,-1.1025000;0.8696333,-1.3267970;0.8697333,-1.3345310;0.8699667,-1.2360940;0.8700000,-1.2058590;0.8703000,-0.8810156;0.8703333,-0.8367188;0.8706333,-0.4886719;0.8706667,-0.4492969;0.8709667,-0.2496094;0.8710333,-0.2425781;0.8713000,-0.4443750;0.8713333,-0.4823438;0.8716000,-0.6693750;0.8716667,-0.6672656;0.8719667,-0.5610938;0.8720000,-0.5322656;0.8723000,-0.2334375;0.8723333,-0.1701563;0.8726333,0.3466406;0.8726667,0.3705469;0.8728667,0.4668750;0.8730667,0.4106250;0.8732667,0.4788281;0.8734000,0.4605469;0.8736333,0.5941406;0.8737667,0.6060938;0.8739667,0.6785156;0.8740667,0.7045313;0.8743000,0.4310156;0.8743333,0.2594531;0.8745333,-0.9119531;0.8746667,-0.6525000;0.8749667,5.5286720;0.8750667,7.4995310;0.8753000,4.6743750;0.8753333,4.3038280;0.8756333,2.5495310;0.8756667,2.4503910;0.8759667,2.1585940;0.8760000,2.1410160;0.8763000,1.8956250;0.8763333,1.8597660;0.8766333,1.4625000;0.8766667,1.4125780;0.8769667,0.8360156;0.8770000,0.7811719;0.8773000,0.5153906;0.8773333,0.4851563;0.8776333,0.1750781;0.8777333,0.1490625;0.8779667,0.3009375;0.8780000,0.3304688;0.8783000,0.4668750;0.8784000,0.4823438;0.8785333,0.4689844;0.8786667,0.4823438;0.8789667,0.4050000;0.8790000,0.3916406;0.8793000,0.2003906;0.8793333,0.1870313;0.8795667,0.1033594;0.8798333,0.0808594;0.8799667,0.1174219;0.8800000,0.1286719;0.8803000,0.2446875;0.8803333,0.2608594;0.8806333,0.3768750;0.8806667,0.3944531;0.8809667,0.5842969;0.8810000,0.6103125;0.8813000,0.8163281;0.8813333,0.8458594;0.8816333,1.1228910;0.8816667,1.1657810;0.8819667,1.6671090;0.8820000,1.7409380;0.8823000,2.4384380;0.8823333,2.5192970;0.8826333,3.0030470;0.8826667,3.0023440;0.8829667,2.1958590;0.8830000,2.0341410;0.8833000,0.3705469;0.8833333,0.2039063;0.8836333,-0.8810156;0.8836667,-0.9520313;0.8839667,-1.4118750;0.8840000,-1.4442190;0.8843000,-1.6839840;0.8843333,-1.7022660;0.8846333,-1.8914060;0.8846667,-1.9040630;0.8849667,-2.0010940;0.8851667,-2.0235940;0.8853000,-1.9828130;0.8853333,-1.9673440;0.8856333,-1.8042190;0.8856667,-1.7782030;0.8859667,-1.5229690;0.8860000,-1.4850000;0.8863000,-1.0933590;0.8863333,-1.0448440;0.8866333,-0.6503906;0.8866667,-0.6075000;0.8869667,-0.2988281;0.8870000,-0.2664844;0.8873000,-0.1089844;0.8874000,-0.0829687;0.8876333,-0.1399219;0.8876667,-0.1617188;0.8879667,-0.5153906;0.8880000,-0.5477344;0.8883000,-0.7889063;0.8884667,-0.8170313;0.8886333,-0.7417969;0.8886667,-0.7150781;0.8889667,-0.3888281;0.8890000,-0.3452344;0.8893000,-0.0063281;0.8893333,0.0246094;0.8896000,0.1146094;0.8896667,0.0900000;0.8899667,-0.2700000;0.8900000,-0.2995313;0.8902000,-0.4204688;0.8903333,-0.4007813;0.8906333,-0.2784375;0.8906667,-0.2566406;0.8909667,0.1321875;0.8910000,0.2039063;0.8913000,0.4436719;0.8914000,0.4886719;0.8915667,0.4169531;0.8917667,0.4774219;0.8919000,0.4275000;0.8920000,0.4500000;0.8923000,0.5575781;0.8923333,0.5646094;0.8926333,0.6567188;0.8926667,0.6539063;0.8929667,-0.6025781;0.8930667,-1.0026560;0.8933000,-0.0527344;0.8933333,0.4514063;0.8936000,7.4397660;0.8936667,7.0692190;0.8939667,3.4593750;0.8940000,3.2674220;0.8943000,2.2872660;0.8943333,2.2612500;0.8946333,2.1009380;0.8946667,2.0777340;0.8949667,1.7198440;0.8950000,1.6783590;0.8953000,1.2016410;0.8953333,1.1362500;0.8956333,0.6032813;0.8956667,0.5716406;0.8959667,0.2573438;0.8960000,0.2221875;0.8962333,0.0520313;0.8963333,0.0703125;0.8966333,0.2981250;0.8966667,0.3206250;0.8969667,0.4267969;0.8970000,0.4289063;0.8973000,0.3846094;0.8973333,0.3768750;0.8976333,0.2383594;0.8976667,0.2228906;0.8979667,0.0808594;0.8980000,0.0724219;0.8983000,-0.0126563;0.8984667,-0.0372656;0.8986333,0.0112500;0.8986667,0.0274219;0.8989667,0.1666406;0.8990000,0.1856250;0.8993000,0.3276563;0.8993333,0.3487500;0.8996333,0.5491406;0.8996667,0.5716406;0.8999667,0.7720313;0.9000000,0.8029688;0.9003000,1.1559380;0.9003333,1.2093750;0.9006333,1.8028130;0.9006667,1.8843750;0.9009667,2.5846880;0.9010000,2.6479690;0.9011667,2.8012500;0.9013333,2.6029690;0.9016333,1.2642190;0.9016667,1.0792970;0.9019667,-0.4324219;0.9020000,-0.5547656;0.9023000,-1.2705470;0.9023333,-1.3183590;0.9026333,-1.6818750;0.9026667,-1.7100000;0.9029667,-1.9392190;0.9030000,-1.9589060;0.9033000,-2.1192190;0.9033333,-2.1276560;0.9035333,-2.1677340;0.9036667,-2.1543750;0.9039667,-2.0749220;0.9040000,-2.0545310;0.9043000,-1.8450000;0.9043333,-1.8133590;0.9046333,-1.5321090;0.9046667,-1.4920310;0.9049667,-1.1214840;0.9050000,-1.0715630;0.9053000,-0.6700781;0.9053333,-0.6278906;0.9056333,-0.3628125;0.9056667,-0.3375000;0.9059667,-0.2404688;0.9060333,-0.2306250;0.9063000,-0.3614063;0.9063333,-0.3902344;0.9066333,-0.6539063;0.9066667,-0.6735938;0.9069000,-0.7621875;0.9070000,-0.7396875;0.9073000,-0.5540625;0.9073333,-0.5153906;0.9076333,-0.1589063;0.9076667,-0.1216406;0.9079667,0.1047656;0.9080667,0.1321875;0.9083000,-0.0021094;0.9083333,-0.0414844;0.9086333,-0.3642188;0.9088333,-0.3895313;0.9089667,-0.3585938;0.9090000,-0.3494531;0.9093000,-0.2025000;0.9093333,-0.1807031;0.9096333,0.2833594;0.9096667,0.3157031;0.9099667,0.4204688;0.9100000,0.4176563;0.9101667,0.3607031;0.9103667,0.4443750;0.9105333,0.3902344;0.9106667,0.4682813;0.9109667,0.5575781;0.9110000,0.5758594;0.9112333,0.6468750;0.9113333,0.5955469;0.9116333,-0.9667969;0.9116667,-0.9731250;0.9119667,1.7339060;0.9120000,2.8209380;0.9122000,7.6007810;0.9123333,5.8675780;0.9126333,3.0888280;0.9126667,2.9460940;0.9129667,2.3470310;0.9130000,2.3385940;0.9133000,2.1157030;0.9133333,2.0882810;0.9136333,1.6804690;0.9136667,1.6333590;0.9139667,1.1531250;0.9140000,1.0933590;0.9143000,0.6426563;0.9143333,0.6138281;0.9146333,0.2692969;0.9146667,0.2439844;0.9148667,0.1371094;0.9150000,0.1968750;0.9153000,0.4338281;0.9153333,0.4563281;0.9156333,0.5449219;0.9157667,0.5653125;0.9159667,0.5308594;0.9160000,0.5280469;0.9163000,0.4492969;0.9163333,0.4429688;0.9166333,0.3536719;0.9166667,0.3466406;0.9169667,0.2475000;0.9171333,0.2221875;0.9173000,0.2742188;0.9173333,0.2939063;0.9176333,0.4647656;0.9176667,0.4886719;0.9179667,0.6215625;0.9180000,0.6419531;0.9183000,0.8177344;0.9183333,0.8430469;0.9186333,1.0666410;0.9186667,1.0989840;0.9189667,1.4864060;0.9190000,1.5475780;0.9193000,2.2014840;0.9193333,2.2879690;0.9196333,2.9081250;0.9197333,2.9974220;0.9199667,2.6458590;0.9200000,2.5389840;0.9203000,1.0539840;0.9203333,0.8796094;0.9206333,-0.3571875;0.9206667,-0.4415625;0.9209667,-0.9520313;0.9210000,-0.9871875;0.9213000,-1.2543750;0.9213333,-1.2733590;0.9216333,-1.4800780;0.9216667,-1.5004690;0.9219667,-1.6256250;0.9220000,-1.6270310;0.9222333,-1.6600780;0.9223333,-1.6544530;0.9226333,-1.5904690;0.9226667,-1.5700780;0.9229667,-1.3710940;0.9230000,-1.3387500;0.9233000,-1.0202340;0.9233333,-0.9745313;0.9236333,-0.5807813;0.9236667,-0.5294531;0.9239667,-0.1244531;0.9240000,-0.0808594;0.9243000,0.1743750;0.9243333,0.1954688;0.9246333,0.2932031;0.9247000,0.3065625;0.9249667,0.1427344;0.9250000,0.1132031;0.9253000,-0.1047656;0.9253333,-0.1139063;0.9255333,-0.1582031;0.9256667,-0.1244531;0.9259667,0.0850781;0.9260000,0.1216406;0.9263000,0.4366406;0.9263333,0.4689844;0.9266333,0.6166406;0.9266667,0.6166406;0.9269667,0.3171094;0.9270000,0.2742188;0.9273000,0.0766406;0.9273333,0.0780469;0.9276333,0.1132031;0.9276667,0.1265625;0.9279667,0.2805469;0.9280000,0.3297656;0.9283000,0.6496875;0.9283333,0.6574219;0.9285000,0.7080469;0.9287000,0.6553125;0.9289333,0.7073438;0.9290667,0.6651563;0.9293000,0.7621875;0.9293333,0.7762500;0.9296333,0.8634375;0.9297667,0.9063281;0.9299667,0.6004688;0.9300000,0.4190625;0.9302000,-0.7706250;0.9303333,-0.5308594;0.9306333,5.9182030;0.9307333,7.8904690;0.9309667,4.9471880;0.9310000,4.5843750;0.9313000,2.8961720;0.9313333,2.8068750;0.9316333,2.4939840;0.9316667,2.4658590;0.9319667,2.1874220;0.9320000,2.1501560;0.9323000,1.7564060;0.9323333,1.7064840;0.9326333,1.1714060;0.9326667,1.1172660;0.9329667,0.7263281;0.9330000,0.6890625;0.9333000,0.3628125;0.9334000,0.3396094;0.9336333,0.4387500;0.9336667,0.4682813;0.9339667,0.5885156;0.9340667,0.6004688;0.9343000,0.5491406;0.9343333,0.5400000;0.9346333,0.4028906;0.9346667,0.3902344;0.9349667,0.2840625;0.9350000,0.2735156;0.9353000,0.1582031;0.9353333,0.1504688;0.9356333,0.0576562;0.9358333,0.0442969;0.9359667,0.0731250;0.9360000,0.0864844;0.9363000,0.1828125;0.9363333,0.1989844;0.9366333,0.3705469;0.9366667,0.3958594;0.9369667,0.5793750;0.9370000,0.6032813;0.9373000,0.8564063;0.9373333,0.8978906;0.9376333,1.3816410;0.9376667,1.4561720;0.9379667,2.1916410;0.9380000,2.2788280;0.9383000,2.7253130;0.9383333,2.7217970;0.9386333,1.9307810;0.9386667,1.7767970;0.9389667,0.2172656;0.9390000,0.0689063;0.9393000,-0.8796094;0.9393333,-0.9365625;0.9396333,-1.3042970;0.9396667,-1.3317190;0.9399667,-1.5574220;0.9400000,-1.5728910;0.9403000,-1.7697660;0.9403333,-1.7852340;0.9406333,-1.9230470;0.9406667,-1.9279690;0.9409333,-1.9778910;0.9410000,-1.9708590;0.9413000,-1.8843750;0.9413333,-1.8604690;0.9416333,-1.6664060;0.9416667,-1.6326560;0.9419667,-1.3275000;0.9420000,-1.2775780;0.9423000,-0.9091406;0.9423333,-0.8620313;0.9426333,-0.5273438;0.9426667,-0.4879688;0.9429667,-0.2721094;0.9430000,-0.2524219;0.9431667,-0.1919531;0.9433333,-0.2039063;0.9436333,-0.4429688;0.9436667,-0.4626563;0.9439000,-0.5371875;0.9440000,-0.4914844;0.9443000,-0.2439844;0.9443333,-0.2046094;0.9446333,0.0653906;0.9447333,0.0970312;0.9449667,0.0351562;0.9450000,0.0225000;0.9453000,-0.1462500;0.9453333,-0.1617188;0.9456333,-0.4310156;0.9456667,-0.4443750;0.9459667,-0.5730469;0.9460000,-0.5709375;0.9463000,-0.5160938;0.9463333,-0.5013281;0.9466333,-0.2137500;0.9466667,-0.1441406;0.9469667,0.0541406;0.9470667,0.1019531;0.9473000,-0.0175781;0.9473333,-0.0105469;0.9474667,0.0471094;0.9476667,0.0217969;0.9479667,0.1300781;0.9480000,0.1392188;0.9483000,0.2475000;0.9483333,0.2559375;0.9486333,-0.6911719;0.9486667,-0.9393750;0.9489333,-1.4428130;0.9490000,-1.1341410;0.9493000,6.7225780;0.9493333,6.7345310;0.9496333,2.9482030;0.9496667,2.7049220;0.9499667,1.3289060;0.9500000,1.2698440;0.9503000,0.9175781;0.9503333,0.8908594;0.9506333,0.6644531;0.9506667,0.6532031;0.9509667,0.5210156;0.9510000,0.5013281;0.9513000,0.1469531;0.9513333,0.1153125;0.9516333,-0.1560938;0.9516667,-0.1750781;0.9519000,-0.2636719;0.9520000,-0.2221875;0.9523000,-0.0309375;0.9523333,-0.0042188;0.9526333,0.1160156;0.9527667,0.1427344;0.9529333,0.1167188;0.9530000,0.1174219;0.9533000,0.0428906;0.9533333,0.0358594;0.9536333,-0.1539844;0.9536667,-0.1757813;0.9539667,-0.4183594;0.9540000,-0.4415625;0.9543000,-0.6595313;0.9543333,-0.6693750;0.9545000,-0.6911719;0.9546667,-0.6644531;0.9549667,-0.5850000;0.9550000,-0.5702344;0.9553000,-0.4471875;0.9553333,-0.4267969;0.9556333,-0.2700000;0.9556667,-0.2460938;0.9559667,0.0780469;0.9560000,0.1357031;0.9563000,0.6939844;0.9563333,0.7755469;0.9566333,1.5546090;0.9566667,1.6403910;0.9569000,1.9596090;0.9570000,1.8843750;0.9573000,0.7769531;0.9573333,0.6082031;0.9576333,-0.8015625;0.9576667,-0.9140625;0.9579667,-1.5194530;0.9580000,-1.5482810;0.9583000,-1.7198440;0.9583333,-1.7268750;0.9586333,-1.8766410;0.9586667,-1.8914060;0.9589667,-2.0714060;0.9590000,-2.0854690;0.9593000,-2.2014840;0.9593333,-2.2057030;0.9596333,-2.2978130;0.9596667,-2.2935940;0.9599667,-2.2275000;0.9600000,-2.2099220;0.9603000,-2.0896880;0.9603333,-2.0664840;0.9606333,-1.8604690;0.9606667,-1.8288280;0.9609667,-1.6614840;0.9610000,-1.6417970;0.9613000,-1.5229690;0.9614333,-1.4934380;0.9616333,-1.5342190;0.9616667,-1.5391410;0.9619000,-1.5848440;0.9620000,-1.5686720;0.9623000,-1.4449220;0.9623333,-1.4160940;0.9626333,-1.1925000;0.9626667,-1.1678910;0.9629667,-1.0399220;0.9630333,-1.0293750;0.9633000,-1.1067190;0.9633333,-1.1179690;0.9636333,-1.3035940;0.9636667,-1.3246880;0.9639667,-1.6558590;0.9640000,-1.6980470;0.9643000,-1.9912500;0.9643333,-2.0109380;0.9646000,-2.1255470;0.9646667,-2.1051560;0.9649667,-1.9926560;0.9650000,-1.9532810;0.9653000,-1.5482810;0.9654333,-1.5166410;0.9656333,-1.5883590;0.9656667,-1.6185940;0.9659667,-1.8000000;0.9660000,-1.8035160;0.9662333,-1.8724220;0.9663333,-1.8365630;0.9666333,-1.7775000;0.9666667,-1.7542970;0.9668000,-1.6973440;0.9670000,-1.7957810;0.9673000,-3.1042970;0.9674667,-3.5571090;0.9676333,-0.7804688;0.9676667,0.5737500;0.9678333,5.1433590;0.9680000,2.9608590;0.9683000,0.2960156;0.9683333,0.1420313;0.9686333,-0.5217188;0.9686667,-0.5498438;0.9689667,-0.7537500;0.9690000,-0.7516406;0.9693000,-0.7073438;0.9694667,-0.6553125;0.9696333,-0.7115625;0.9696667,-0.7277344;0.9699667,-0.8739844;0.9700000,-0.8782031;0.9702333,-0.9260156;0.9703333,-0.9000000;0.9706333,-0.6855469;0.9706667,-0.6539063;0.9709667,-0.4619531;0.9710000,-0.4415625;0.9711667,-0.3895313;0.9713333,-0.3860156;0.9716333,-0.3670313;0.9718000,-0.3480469;0.9719667,-0.3677344;0.9720000,-0.3726563;0.9723000,-0.4443750;